    -0.345493      0.304469      -0.13037   -0.00615421     0.0470124      0.025658   -0.00793329    -0.0180715  -0.000101285  -0.000297485  -0.000122473  -0.000978047
    -0.355006      0.309847     -0.140285    -0.0123778     0.0565506     0.0251734   -0.00729735    -0.0198203   0.000154335  -0.000181004  -0.000148582 -9.58223e-005
    -0.356885      0.309109     -0.153905    -0.0163703     0.0590566     0.0223702   -0.00617293     -0.016606   0.000356416  -0.000106844  -0.000956748  -0.000362264
    -0.358093      0.318568     -0.151747      -0.01404     0.0530773     0.0207612   -0.00527479    -0.0182037    0.00035665  -0.000212641   -0.00112408   0.000132885
    -0.358592      0.327047     -0.160444    -0.0189304     0.0474751     0.0183772   -0.00296884    -0.0171076  7.70971e-005   0.000236196  -0.000532089  -0.000153734
    -0.353597      0.326931      -0.15972    -0.0170877      0.042444     0.0188918  -0.000858616    -0.0189688   0.000255649   0.000879771  -0.000772221   0.000190324
    -0.343495      0.325006     -0.144545    -0.0218111     0.0437775     0.0189423  -0.000515351     -0.020217  7.44568e-005  2.64278e-005  -0.000870368   0.000839478
    -0.344302      0.332275      -0.15238    -0.0243402     0.0437393     0.0189856   -0.00151656    -0.0202759  -0.000213873   0.000475551  -0.000277224   0.000559367
    -0.347388      0.340474     -0.158355    -0.0243777     0.0437266     0.0189777   -0.00172693    -0.0190716   0.000173399  -0.000184174  -0.000146482  -0.000108313
    -0.338378      0.343818     -0.155734    -0.0300881     0.0432989     0.0178217   -0.00241151    -0.0164536   0.000886226   0.000335532  -0.000679979   0.000404751
    -0.335332      0.348057     -0.169114    -0.0336891     0.0388117     0.0138594   -0.00320139    -0.0173875  4.50627e-005   0.000799627  2.84104e-005    0.00044489
    -0.334796      0.344659     -0.175838    -0.0343198     0.0402279      0.015608   -0.00316878    -0.0150764  -0.000476575   0.000354721  -0.000253616  -0.000331126
    -0.336139       0.33635     -0.169634    -0.0305019     0.0445722     0.0162636   -0.00307902    -0.0165471  -0.000391543  -0.000169631 -3.82304e-005   0.000210362
    -0.336707      0.328748     -0.171835    -0.0290366     0.0441349      0.016346   -0.00227069    -0.0173916  -0.000477097   0.000250904  -0.000418927   0.000166701
    -0.343682       0.30197     -0.177541    -0.0156038     0.0420808     0.0185307   -0.00382678    -0.0170833 -9.78487e-005  -0.000511941  -0.000456092 -3.47156e-007
    -0.342108      0.303492     -0.173314    -0.0130566     0.0407191     0.0176055   -0.00487083    -0.0171121  -0.000475894   0.000357931  -0.000247309  -0.000324457
    -0.336059      0.343776     -0.176574    -0.0347254     0.0398476     0.0158845   -0.00285748    -0.0155949  -0.000950138  -0.000154112  7.20249e-005    0.00053139
    -0.337114      0.361692     -0.181252    -0.0438356     0.0436785     0.0156846   -0.00353469    -0.0154516   0.000679741   0.000256536   0.000125275   0.000660095
    -0.318869      0.352883     -0.157374    -0.0390722     0.0401419     0.0155104   -0.00161641     -0.017689   0.000981447 -8.61941e-005  -0.000295087   0.000447315
    -0.307346      0.340985     -0.138808    -0.0323302     0.0416896     0.0174066  -0.000359995    -0.0195687   0.000435386  3.84179e-005 -1.05708e-005   0.000277915
    -0.301014      0.327329     -0.122775    -0.0257007     0.0449923     0.0197628   -0.00180995    -0.0204903   0.000458529  -0.000632374  -0.000742901   0.000176734
    -0.300497      0.329425     -0.122884    -0.0282428     0.0418374      0.020295   -0.00191918    -0.0193564   0.000338424   0.000460159  -0.000397746   0.000238863
    -0.306848      0.319151     -0.136277    -0.0250864     0.0423574      0.021102   -0.00285113     -0.018296   -0.00018878 -9.05314e-005  -0.000846351 -4.02307e-005
    -0.304621      0.296723     -0.130566    -0.0155967     0.0462145     0.0225899   -0.00282595    -0.0202376   0.000524925  -0.000272223    0.00054434  -0.000164802
    -0.315873      0.314677      -0.15977    -0.0248957     0.0467828      0.018647    -0.0021356    -0.0168404   -0.00012431   0.000161087   0.000271394   0.000104391
    -0.310914      0.320831     -0.172098    -0.0327926     0.0474817     0.0163123    -0.0016074    -0.0157819  -0.000395747   -0.00027427  -0.000209523   0.000703497
    -0.293335      0.310901     -0.141481    -0.0278961     0.0474591     0.0168023   -0.00204878    -0.0165902  -0.000180729  1.38131e-005  -0.000676455   -0.00054244
    -0.290408      0.319053     -0.149605    -0.0340829     0.0467783     0.0158879   -0.00375279    -0.0137813 -1.47739e-005   0.000760149  -0.000755606  -0.000696954
     -0.28206      0.312285     -0.145985     -0.034897     0.0462277     0.0165253   -0.00336467    -0.0163681  -0.000191791 -9.29495e-005  -0.000848715 -4.61297e-005
    -0.281555      0.316724     -0.144478     -0.039153     0.0485305     0.0170802    -0.0026441    -0.0159329   -0.00028175   0.000327113    -0.0012335 -9.10198e-005
    -0.290043      0.337607     -0.156257    -0.0472809     0.0512078     0.0157563   -0.00409897    -0.0120289  -0.000496046   0.000249296  -0.000435367   0.000162393
    -0.281483      0.332179     -0.148104    -0.0426618      0.047522     0.0159891   -0.00489991    -0.0141405   0.000322674   0.000456002  -0.000405517   0.000231164
    -0.279167      0.330962     -0.140314    -0.0414438     0.0476034     0.0165798   -0.00502844    -0.0135633  5.50394e-005   0.000128483  -0.000717816   0.000339624
    -0.271042      0.322237     -0.137175    -0.0389909     0.0464765     0.0178839   -0.00439314    -0.0141402  6.44503e-005    0.00023505  -0.000546347  -0.000154257
    -0.261025      0.312121     -0.129838    -0.0339992     0.0432041     0.0179221   -0.00246567    -0.0160689  -0.000218865   0.000581178  -0.000120703  6.12604e-005
    -0.270425      0.317421     -0.129094    -0.0334654     0.0446956     0.0142985  -0.000422305    -0.0142257   0.000725938  -0.000200654  -0.000272889  -0.000439737
    -0.268391      0.306881     -0.134814    -0.0360298      0.048328     0.0183599    -0.0029737    -0.0179968  -0.000182923  1.36714e-005  -0.000677178  -0.000538071
    -0.269367      0.308234     -0.137529    -0.0310005        0.0444     0.0190675   -0.00526645    -0.0165702  -0.000135642   0.000160764   0.000264119   0.000109343
    -0.264005      0.306593     -0.134163    -0.0303299     0.0421221     0.0182471   -0.00430678    -0.0157281  -0.000127054   0.000266388   0.000433066  -0.000388345
    -0.258987      0.300427     -0.133509    -0.0330346     0.0434179     0.0191219   -0.00447866    -0.0157384   0.000150601  -0.000288934  -0.000330965   0.000388915
    -0.257121      0.302247     -0.132775     -0.031064     0.0448205     0.0185119   -0.00537802    -0.0141776  -0.000195797  1.37102e-005  -0.000685448  -0.000539128
    -0.255957      0.303831     -0.130846    -0.0339252     0.0451223     0.0204494   -0.00350328    -0.0160688  6.97612e-005   0.000237271  -0.000543302  -0.000150041
    -0.252919      0.305353       -0.1386    -0.0342828     0.0436333      0.021475  -0.000182343    -0.0152831  -0.000180519   1.5577e-005  -0.000681769  -0.000541158
     -0.24245       0.29058      -0.12544    -0.0402109     0.0502395     0.0198614   -0.00101106    -0.0156528  -0.000645331  -0.000282865 -1.77113e-005  -0.000669513
     -0.26418      0.301442     -0.129923    -0.0310872     0.0405012      0.015753   -0.00271809    -0.0150138 -9.53476e-005  -0.000406581  -0.000299713  -0.000499024
    -0.271138      0.311226     -0.139065    -0.0258564     0.0352343     0.0158816   -0.00241804    -0.0143239 -1.50936e-005   0.000656192  -0.000926293  -0.000200829
    -0.262171      0.309196     -0.120254    -0.0327895     0.0410185     0.0184206   -0.00404893    -0.0149502   0.000163488 -7.80338e-005   6.7001e-006  -0.000603277
    -0.266728       0.31953     -0.127295    -0.0333949     0.0391504     0.0165185   -0.00124807    -0.0130994   0.000155708  -0.000289207  -0.000335668   0.000380391
    -0.273043      0.321966     -0.133849     -0.035294     0.0426855     0.0168108    -0.0014572    -0.0122875 -2.64123e-005   0.000550601   -0.00110272     0.0002915
       -0.279      0.328848     -0.123126    -0.0350074     0.0462583      0.019607   -0.00238692    -0.0121273  -0.000111093  -0.000511286  -0.000478269  -4.7733e-006
    -0.279524      0.329633      -0.11292    -0.0326353     0.0489995     0.0223846   -0.00196775    -0.0136562  -0.000150916 -4.77369e-005 -8.66916e-005    0.00109631
    -0.280198      0.325968     -0.119132    -0.0328502     0.0477253     0.0203535  -0.000949306    -0.0150596   0.000156193  -0.000287532  -0.000333192    0.00038497
    -0.272922      0.324443     -0.122192    -0.0341869     0.0457679     0.0177443   -0.00272253    -0.0129467  5.93082e-005   0.000130995  -0.000720456   0.000338488
    -0.263076      0.321571      -0.11196    -0.0323947     0.0453843     0.0178286    -0.0053345    -0.0136469   0.000611017   0.000114313  -0.000833698   2.0008e-005
    -0.262167      0.322809     -0.113717    -0.0337162     0.0452298     0.0167278   -0.00263594    -0.0126658  -0.000102578  -0.000406204  -0.000307318  -0.000501087
    -0.260608      0.315513     -0.102317     -0.028768     0.0439703       0.01776   -0.00343636     -0.011796    0.00041654   0.000145661   0.000138064  -0.000220382
    -0.263163      0.311613     -0.100221    -0.0233764     0.0389516     0.0193924   -0.00369601    -0.0135764   0.000133406   0.000596643    0.00073357  -0.000496983
    -0.288284      0.339441     -0.138882    -0.0373833     0.0405491     0.0171878  1.31679e-006    -0.0127204   0.000333546   0.000458237   -0.00040806    0.00022604
    -0.317693      0.367038     -0.184186    -0.0503297     0.0469761     0.0143401    0.00179224    -0.0118667  -0.000387167  -0.000171638 -4.57135e-005   0.000196909
    -0.327419       0.36076     -0.188513    -0.0512885      0.053143     0.0130146    0.00132294    -0.0116532  -0.000381827   -6.673e-005   0.000126014  -0.000299904
    -0.312738      0.343143     -0.160214    -0.0386477     0.0522387      0.016197   -0.00223013    -0.0121118   0.000423518      0.000142    0.00014894  -0.000226599
    -0.294041      0.336685     -0.140613    -0.0321117     0.0454676     0.0185357   -0.00420348    -0.0139223   0.000413414  3.80353e-005 -2.26729e-005   0.000276492
    -0.275089      0.328464     -0.124881     -0.032492      0.039742     0.0173063   -0.00466014    -0.0144145  -0.000110534  -0.000512723  -0.000473993  -1.2897e-006
    -0.273569      0.323265     -0.120943    -0.0306812     0.0398518     0.0196823   -0.00365573    -0.0156739  6.87522e-005   0.000236905  -0.000545606  -0.000150679
    -0.281465      0.321781     -0.126859    -0.0311494       0.03924     0.0221266   -0.00207663     -0.016254   0.000449182  -0.000632302  -0.000752959   0.000174879
    -0.276455      0.312947     -0.129254    -0.0291158     0.0405455     0.0238127  -0.000332612    -0.0175882   0.000631615   0.000117304  -0.000822627  2.39087e-005
    -0.277436      0.316119     -0.126899    -0.0312087     0.0420448     0.0227771    -0.0018109     -0.016485   0.000715096  -0.000303676  -0.000442473  6.72241e-005
    -0.279646      0.325646     -0.128826     -0.032681     0.0400826     0.0198552  -0.000631164    -0.0155212  7.71433e-005   0.000237312  -0.000543699   -0.00015438
    -0.291507      0.330072     -0.134772    -0.0326512     0.0423544      0.022157    0.00137621    -0.0182442  -0.000395505  -0.000376036  -0.000383035    0.00120527
    -0.286053      0.330562     -0.138638    -0.0318057      0.038629      0.018846    0.00029386    -0.0189429  -0.000122155  5.59637e-005  9.97936e-005    0.00060102
    -0.268306      0.327158     -0.143255    -0.0311773     0.0301714     0.0130208   -0.00156804    -0.0162621  -0.000572415   0.000565465  -0.000980815   0.000615963
    -0.269282       0.32212     -0.147111    -0.0282836     0.0301706     0.0125463   -0.00336239    -0.0165499  -0.000179292  1.11738e-005  -0.000676815  -0.000543743
    -0.273698      0.323261     -0.148136    -0.0265991     0.0302595     0.0113854   -0.00103254    -0.0173689  8.11262e-005   0.000128838  -0.000704992   0.000336244
     -0.27941      0.328535     -0.156101    -0.0274259     0.0291779     0.0105745  -0.000182063    -0.0167052  -0.000467971   0.000250291  -0.000421854   0.000160804
    -0.280724      0.331881     -0.157702    -0.0277877     0.0308309     0.0118671   0.000553598    -0.0175543   0.000351494   0.000456925  -0.000392768    0.00022636
    -0.284269      0.340195     -0.157517    -0.0311522     0.0302427     0.0124761    0.00270689    -0.0181247  9.24081e-005   0.000129081  -0.000701508   0.000333169
    -0.287452      0.340984     -0.166384    -0.0339862     0.0297728     0.0132841    0.00344244    -0.0184676  -0.000101025   0.000158913   0.000275963  9.62223e-005
    -0.296674      0.343573     -0.171198    -0.0348488     0.0308346     0.0150546    0.00256804    -0.0170607  -0.000196871    0.00057897  -0.000110097  5.28225e-005
    -0.299423      0.352087       -0.1791     -0.038851     0.0307643     0.0147687    0.00175537    -0.0154219  -0.000928748 -4.83911e-005    0.00024325   3.0437e-005
    -0.289982      0.349564     -0.164201    -0.0389251     0.0288324     0.0166344     0.0027617    -0.0169254  -0.000380753  -0.000274412  -0.000210237   0.000701608
    -0.292458      0.354557     -0.161248    -0.0388594     0.0255695     0.0179801    0.00311278    -0.0174716   0.000533965   -0.00038257   0.000370737   0.000316361
    -0.307072      0.365355     -0.182805    -0.0403376     0.0229125     0.0160357    0.00451788    -0.0155408  -0.000572369  -0.000245471   0.000766089    0.00046003
    -0.309699      0.376226     -0.186983    -0.0425816     0.0199509     0.0139394    0.00705399    -0.0148436    -0.0007448   0.000594046   -1.345e-007   0.000366702
     -0.31808      0.384648     -0.194069    -0.0470865     0.0227333     0.0125283    0.00663689     -0.014773  -0.000187557    0.00057609  -0.000111338  4.24405e-005
    -0.329231      0.399232     -0.203014    -0.0583587     0.0337551      0.012881    0.00520295    -0.0135606   -0.00056791    -0.0001438   0.000935516 -4.34996e-005
     -0.28852      0.386761     -0.162087    -0.0533486     0.0256188     0.0135296     0.0088125      -0.01615  -0.000386233   0.000502267   0.000690508   0.000302243
    -0.263999      0.340307     -0.124695    -0.0283155     0.0192931     0.0154842     0.0068125     -0.018628  -0.000359395  -0.000165783 -4.02854e-005   0.000205445
    -0.286825       0.34991     -0.153983    -0.0321107      0.017694     0.0146575     0.0048059    -0.0152204   0.000447692  3.77667e-005 -1.61424e-005   0.000266301
    -0.293427      0.367603     -0.171593    -0.0371634     0.0111205      0.011324    0.00679485    -0.0158445  -0.000269014  -0.000590641   0.000344437   0.000240689
    -0.305843      0.356982     -0.178801    -0.0341659     0.0183332     0.0119022    0.00559411    -0.0166696 -9.55458e-005   0.000157817   0.000274599  9.06743e-005
    -0.314816      0.329814     -0.176745    -0.0207801     0.0232234     0.0133887    0.00387696    -0.0170982   0.000103756   0.000235327  -0.000528073  -0.000164037
    -0.294641      0.372716     -0.157802    -0.0403509     0.0232114     0.0116166     0.0048373    -0.0166948   0.000157671    0.00038015   0.000409246   0.000478777
    -0.300452       0.40754     -0.165741    -0.0578824     0.0262854     0.0103546    0.00606621    -0.0172091   0.000250328 -4.26945e-005   0.000792818   0.000519555
    -0.340466      0.307915     -0.176877   -0.00297249      0.032973     0.0189727    0.00147558    -0.0178793  -0.000371909  -0.000164652 -2.93704e-005   0.000210293
     -0.34431       0.29805     -0.172818   0.000916873     0.0329552     0.0192967    0.00105457    -0.0171187   0.000183658   -0.00018052   -0.00014315  -0.000112149
    -0.330951      0.337634     -0.158351    -0.0215595     0.0308593     0.0190237    0.00261521    -0.0180573  9.59253e-005   0.000237209  -0.000530888  -0.000156853
    -0.340899      0.331441     -0.161435    -0.0144232     0.0375802     0.0224925    0.00171855    -0.0193246   0.000262852   0.000881732  -0.000771238    0.00019123
     -0.32441      0.331196     -0.138817     -0.010353     0.0287126     0.0256592    0.00374276     -0.021942   0.000451121  4.40945e-005 -3.95876e-006   0.000284216
    -0.322773      0.349907     -0.165515    -0.0226115     0.0146878     0.0190338    0.00688187    -0.0198697 -9.62139e-005  5.64801e-005   0.000108019   0.000595227
    -0.344438      0.382641     -0.220316    -0.0387832    0.00780827     0.0120009      0.010632     -0.016505  -7.8079e-005   0.000156315   0.000281565  8.35049e-005
    -0.312026      0.339738     -0.157895    -0.0170947    0.00844449     0.0186679    0.00525922    -0.0195887  -0.000741231   0.000598804   5.3772e-006   0.000380817
    -0.309946      0.324258     -0.163524    -0.0169484     0.0182968     0.0191163    0.00430397    -0.0199105  -0.000354385 -6.00963e-005   0.000139705  -0.000284158
    -0.322319      0.334398     -0.191177    -0.0248492     0.0220895     0.0154627    0.00649241    -0.0198666  -0.000903758 -4.59011e-005   0.000257415  3.12933e-005
    -0.312968      0.320211     -0.168441    -0.0147861     0.0227411     0.0168511     0.0047161    -0.0202958   0.000200245  -0.000182363  -0.000139644  -0.000113928
    -0.324751      0.322188     -0.178868    -0.0147696     0.0224015     0.0161475    0.00496112    -0.0203929   -0.00032143  -0.000733763  -0.000586278  -0.000394384
    -0.325118      0.313196      -0.18355    -0.0146156      0.023613     0.0152469     0.0060968    -0.0202943    0.00028907   -0.00070833  7.67058e-005   0.000421938
    -0.330763      0.315652      -0.18464    -0.0138209     0.0242831     0.0160502    0.00657463       -0.0196   0.000212676 -7.70377e-005  3.38704e-005   -0.00061356
    -0.321976      0.305312     -0.193544    -0.0153494     0.0158015     0.0143386    0.00887352    -0.0191195   0.000472436  3.98753e-005  3.07058e-006   0.000265271
    -0.329571      0.311408     -0.191507    -0.0140984     0.0162863     0.0177918     0.0100625    -0.0218665   0.000423458  -0.000105956  -0.000936348  -0.000375954
    -0.289906      0.278656     -0.244999    -0.0291618   -0.00179028   -0.00227564     0.0144318    -0.0176205   0.000248338 -8.39222e-005  4.31789e-005  -0.000639155
    -0.278577      0.264469     -0.252724    -0.0317034   -0.00243301   -0.00765241     0.0128658    -0.0145457  -0.000147841   0.000573103 -9.32202e-005  2.07367e-005
    -0.373864      0.338357     -0.159049   -0.00646204     0.0432364     0.0290734    0.00194857    -0.0207426   0.000531728  -0.000375619   0.000381196   0.000329216
    -0.366795      0.324845     -0.162388    -0.0111851     0.0483774     0.0243181   -0.00218749    -0.0173975   0.000342943   0.000567173   -0.00022119   -0.00025749
    -0.349027      0.302626     -0.182923    -0.0170255     0.0492095     0.0164961   -0.00447871     -0.014711  -0.000103643  -0.000512838  -0.000458901 -4.86094e-006
    -0.360307      0.306522      -0.19146    -0.0166818      0.057575     0.0172357   -0.00330321    -0.0149937  -0.000448814   -0.00031494  -0.000977914  -0.000437588
    -0.357718      0.308208     -0.204522    -0.0163766     0.0491578     0.0144489   -0.00248522    -0.0129938   0.000160191  -0.000290973  -0.000317773   0.000375514
    -0.352839      0.313283      -0.19564   -0.00901927     0.0412698     0.0149133   -0.00412814    -0.0129434   0.000163329  -0.000185197  -0.000149005  -0.000116931
    -0.340793       0.31139     -0.194622   -0.00379093     0.0351145     0.0144794   -0.00489233    -0.0129254   0.000156042  -0.000290487  -0.000319772   0.000379472
    -0.349748      0.321436     -0.187153    0.00275153     0.0411724     0.0217413   -0.00340155    -0.0164667  -0.000354612  -0.000732263  -0.000591944  -0.000387108
    -0.347327      0.319939     -0.183574    0.00754403     0.0428051     0.0244194     -0.001303    -0.0172355 -9.01669e-005  -0.000507387  -0.000450772  1.07806e-006
    -0.335544      0.316368     -0.195018     0.0105899     0.0388539     0.0214706   0.000541302    -0.0183133   0.000186129    -0.0001797  -0.000135075  -0.000110422
    -0.316167      0.306883     -0.197167    0.00819215     0.0365137     0.0142051    0.00135158    -0.0186283   0.000355111   0.000355507   -0.00054719   0.000722039
    -0.305657      0.303495     -0.188984    0.00952419     0.0367384     0.0114874    0.00208451    -0.0166567   0.000458159   0.000146232   0.000173516  -0.000229712
    -0.310456      0.299735     -0.192142     0.0166827     0.0339231    0.00805687   -0.00115464     -0.014983  9.42126e-005   0.000236774  -0.000521506  -0.000166726
    -0.312561      0.284987     -0.178501     0.0219698     0.0353719    0.00701452   -0.00465309     -0.015989   0.000182953 -7.79438e-005  3.20113e-005  -0.000613421
    -0.327728      0.289826     -0.183402      0.022102     0.0342892    0.00460622   -0.00470475     -0.017526  4.93992e-006  -0.000932733 -6.07986e-005   3.3414e-005
    -0.363078      0.310713     -0.198965      0.024136     0.0260515  -0.000815022   -0.00661796    -0.0146077 -9.07571e-005  -0.000516204  -0.000446711 -1.69567e-005
    -0.397143      0.318764     -0.205656     0.0345974     0.0169436   -0.00356364   -0.00608348    -0.0149533  9.09001e-005   0.000231348  -0.000516304   -0.00017146
      -0.4197      0.336305       -0.2191     0.0428545    0.00442185    -0.0123948   -0.00545379    -0.0136822  -0.000104569   0.000152792   0.000291703  7.72667e-005
    -0.419891      0.367239     -0.228136     0.0480494   -0.00286077    -0.0199263   -0.00371576    -0.0131858  -0.000652486   0.000166885    0.00040754   0.000390465
    -0.418647      0.384959     -0.223182     0.0592619    -0.0103682    -0.0230122   -0.00422334    -0.0154849  -0.000442934   0.000241866  -0.000391855   0.000132677
    -0.411253      0.396122     -0.212938     0.0686834     -0.012022    -0.0262545   -0.00633721    -0.0135641   -0.00010183  4.39659e-005   0.000126729   0.000561468
    -0.393842      0.398803     -0.207397     0.0769717   -0.00757156    -0.0307109   -0.00520372    -0.0136272  -0.000815628  -0.000476535   0.000656635  4.01848e-005
    -0.369806      0.396924     -0.198766     0.0852872   -0.00366701    -0.0332323   -0.00561358    -0.0137281 -9.50314e-005  4.48772e-005   0.000131129   0.000554723
    -0.318217      0.398404     -0.181049     0.0864048    0.00550465    -0.0364028    -0.0054651    -0.0145703   0.000640685   0.000776969 -5.34853e-005  7.81584e-005
    -0.285636      0.393944     -0.166488     0.0959663     0.0110065    -0.0352261   -0.00481541    -0.0138811   -0.00044154   0.000245396  -0.000391868   0.000121472
    -0.267981      0.393456     -0.182672      0.108036     0.0088088    -0.0347569   -0.00276711    -0.0123174 -5.25269e-005  -0.000517671  -0.000427823 -5.33689e-005
    -0.237508      0.379715     -0.193151      0.119975     0.0155275    -0.0351603    0.00311243    -0.0129096 -5.99103e-005   0.000158449   0.000312435  4.63773e-005
    -0.167934      0.362319     -0.191267      0.131318     0.0283301    -0.0349088    0.00762669    -0.0121672   0.000706671   0.000116051  -0.000771662 -4.54177e-005
   -0.0422047       0.36706     -0.177822      0.134821     0.0490234    -0.0378369     0.0144703    -0.0133076   0.000559853   -0.00052298  -0.000520794  -0.000398396
    0.0979085      0.370565     -0.152499      0.139055     0.0774233    -0.0373964     0.0193342    -0.0139023   0.000375413  -0.000487878   0.000457816  -0.000640529
     0.221118      0.372144     -0.144541      0.155085     0.0989122    -0.0307185     0.0257414    -0.0118956   0.000297095 -5.99001e-005  7.56792e-005  -0.000689235
      0.32563      0.379571      -0.15761      0.159478      0.123664     -0.021833     0.0328994   -0.00978546   0.000657238  -0.000250508   0.000600444  -0.000263104
     0.448733      0.412723     -0.188945      0.158558      0.145344    -0.0202478     0.0399887   -0.00572022   0.000315623  -0.000155644 -8.99612e-005   -0.00021343
     0.639581      0.441979     -0.170782      0.176184      0.164949    -0.0200254     0.0443359   -0.00642816 -5.21981e-005   0.000614764 -4.54238e-005 -4.77688e-005
     0.893084      0.452687     -0.128402      0.180732      0.199706    -0.0174549     0.0469695   -0.00735591   0.000217669   0.000949628   0.000264323   -0.00015622
      1.18692      0.499761    -0.0804054      0.168168      0.240888    -0.0134619     0.0527422   -0.00584328 -4.28391e-005   0.000627955 -5.28702e-005 -5.42735e-005
       1.5277      0.545042    -0.0380356      0.147146      0.288318   -0.00663494     0.0576754   -0.00497034   -0.00048207  -0.000441637  -0.000296404   0.000203223
      1.83706      0.585048     0.0010339      0.119058      0.332884   -0.00799965     0.0600157   -0.00211087   0.000621684  -0.000577975  -0.000702031  4.44072e-005
      2.13901      0.641382     0.0423859      0.107677      0.353943   -0.00804001        0.0605    -0.0031112  -0.000312124   0.000311279  -0.000385022  4.24426e-005
      2.44176      0.682351     0.0565074      0.109557       0.35762   -0.00867175     0.0601113   -0.00421803  8.23668e-005  -0.000345715  -0.000251825  -0.000622549
      2.69481      0.695271      0.089462      0.104616      0.373719    -0.0130542     0.0597031   -0.00227981   0.000330043  -0.000226838  -0.000290579   0.000255129
      2.94474      0.690056      0.107169     0.0967967      0.404072   -0.00862496      0.061874   -0.00285412    0.00080115   0.000181905  -0.000785932  -0.000110315
      3.21744      0.678454      0.141601     0.0812323      0.437279     0.0054228     0.0629437   -0.00367702   0.000765898   0.000862714 -6.12659e-005  7.84278e-006
      3.49212      0.675984      0.189253     0.0598819      0.465086     0.0197924     0.0600313   -0.00364345   0.000309973  -0.000101724  -0.000141368  -0.000211297
      3.73126       0.71786      0.207973     0.0404298      0.485875     0.0266267     0.0581351   -0.00347043   0.000855893  -0.000116094  -0.000260683  -0.000527476
        3.938       0.77097       0.21387     0.0205839      0.497717     0.0310261     0.0534736  -0.000795231   0.000568759   -0.00044485  -0.000581922  -0.000414911
      4.11351      0.841408      0.202396     0.0202245      0.483781     0.0335817     0.0478277    0.00281396  -0.000204166  -0.000399881   0.000496686  -0.000325545
      4.25015      0.942104      0.187336     0.0422118       0.43267     0.0340151     0.0406068     0.0058151  -0.000139102   0.000660083   -0.00013796  -2.0172e-005
      4.36312       1.03037       0.15266     0.0481497      0.380198     0.0285071     0.0378122    0.00871467   0.000335018  -0.000530466   0.000203259  -0.000151078
       4.4357        1.1086      0.123229     0.0435811      0.339706     0.0226012     0.0340952     0.0108319   0.000241844  -0.000117222  -0.000183851  -0.000198086
      4.49623       1.16441     0.0823748     0.0687302      0.297577     0.0258825     0.0315122     0.0117304  -0.000307067  4.25282e-006   0.000102697  -0.000366046
      4.55317       1.17103     0.0106162      0.111838      0.256259     0.0378146     0.0366847    0.00933866   0.000185403   0.000308757  -0.000543496  -0.000230217
      4.62302       1.11952    -0.0133608      0.147813      0.229618     0.0597346     0.0392943    0.00615908  8.53052e-005  -0.000175398   0.000653835  9.39069e-005
      4.69297       1.14264    -0.0545511      0.191289      0.190296     0.0776937     0.0295135    0.00503824   0.000527445   0.000127438 -7.68056e-006   0.000250377
      4.68454       1.24406     -0.191196      0.233257      0.124178      0.080289     0.0275975    0.00928639  -0.000536428  -0.000305426  -0.000158571  -0.000205526
      4.70077       1.26929     -0.280067      0.260763     0.0744089     0.0896529     0.0320567     0.0117254  8.30727e-006   0.000247554   0.000300179  7.34735e-005
       4.7433       1.26682     -0.330856      0.292878      0.035896      0.107833     0.0297913     0.0101698  9.93683e-005  -0.000166699   0.000691142   0.000137876
      4.74609       1.27853     -0.411611      0.327378    -0.0192081       0.12436     0.0283272    0.00855084   0.000214523   0.000226943  -0.000655376   0.000348705
      4.72954        1.3176     -0.495119      0.337472    -0.0884927      0.126943     0.0248775     0.0101281  -0.000237062   2.8939e-005   0.000184966  -0.000270357
      4.69022       1.37839     -0.553891      0.309589     -0.143266      0.123833     0.0240946    0.00871339   0.000582042   0.000119898  4.35523e-005   0.000290033
      4.69109       1.40909     -0.568825        0.2522     -0.169167      0.122241     0.0219337    0.00558097  2.09577e-005   0.000127021   0.000149873   0.000618557
      4.70722       1.40351     -0.592942      0.185766     -0.187991      0.121765     0.0213004    0.00322715   0.000494789   0.000627198  -0.000181058  -0.000239116
       4.6986       1.37147     -0.597307      0.113167     -0.196241      0.121505     0.0179443  -0.000421498   0.000670358  -0.000116369   0.000747524   -0.00063711
      4.68101       1.27152     -0.626392     0.0241246     -0.210364      0.100768     0.0144184    0.00107267  1.31192e-005   0.000303452    0.00046382  -0.000370478
      4.61921       1.18775     -0.620192    -0.0548736     -0.213718     0.0922841     0.0115967   -0.00212804    0.00017263   0.000935291   0.000210009 -2.43062e-005
      4.49354       1.18819     -0.560389     -0.118684     -0.193877       0.11214    0.00649593      -0.01193   0.000140193   0.000829139   2.9644e-005   0.000505844
      4.41127       1.09347     -0.560914     -0.196606     -0.195407      0.106268    0.00961238    -0.0149962   0.000146293   0.000820839  2.28763e-005   0.000504087
      4.34731       0.89731     -0.554518     -0.306251     -0.164937     0.0948337    0.00890747     -0.017818   0.000784299   0.000373229   0.000282893   0.000223285
      4.22183      0.627014     -0.536879      -0.34971     -0.132165      0.101261    0.00961589    -0.0222343 -3.81028e-005   0.000170607   0.000253887   0.000173486
      4.05582      0.337445     -0.499741     -0.331735      -0.12399       0.09713     0.0137002    -0.0239897 -3.17404e-005  7.26531e-005  8.60746e-005   0.000670632
      3.81414     0.0838249     -0.510984     -0.335238    -0.0901232     0.0845922     0.0122024     -0.021901  1.86752e-006  -0.000390202  -0.000301251  -0.000435451
      3.61313     -0.212819     -0.529328     -0.326649    -0.0562884      0.075741     0.0181268    -0.0214246  -0.000573652   0.000198362    0.00038327   0.000478051
      3.46173      -0.47413     -0.487434      -0.32326    -0.0154894     0.0616277     0.0198667     -0.022316  7.88036e-005  -0.000235185   0.000657843   0.000191031
      3.28583     -0.749248     -0.494403     -0.273085     0.0172156     0.0588574      0.018974    -0.0216498   0.000191654   0.000269442  -0.000517773  -0.000110529
       3.1159      -1.01576     -0.530542     -0.207412     0.0319965     0.0634971     0.0208195    -0.0189259     0.0003155  -0.000811108  -0.000852364  -0.000171324
      2.97055      -1.20799      -0.54943     -0.166566     0.0438436     0.0605014     0.0229772    -0.0162521   -0.00016658  -0.000429976   0.000553562  -0.000199181
      2.84601      -1.39624     -0.555981     -0.125647     0.0589229      0.059917     0.0233054    -0.0149147  3.85486e-006   0.000220061   0.000317161   0.000144363
      2.71909      -1.54645     -0.558246    -0.0985106     0.0727233     0.0566326     0.0229467     -0.014037   0.000375405    0.00094229  -0.000726383   0.000227808
       2.5978      -1.65191     -0.574574    -0.0661858     0.0709548     0.0525428     0.0236149    -0.0137758   0.000570166    0.00021037   0.000220196  -0.000182803
      2.48805      -1.73401     -0.591024    -0.0344643     0.0705677     0.0516053     0.0199832    -0.0107451   0.000211019   0.000409949  -0.000300678  -0.000613485
      2.37472      -1.77384     -0.591686   -0.00672123     0.0708319     0.0511672     0.0196805    -0.0085321  -0.000356806   0.000323646  -0.000358422    0.00020248
      2.26232      -1.78686     -0.583345    0.00977139     0.0731129      0.051381      0.014781   -0.00937293  -0.000279821 -9.64368e-005  2.62001e-005   0.000252842
      2.18435      -1.80118     -0.568304     0.0161742     0.0809581     0.0474942     0.0132193   -0.00775118    0.00027728 -8.18237e-006  8.15118e-005  -0.000568591
      2.07929      -1.79214     -0.558464      0.022445     0.0879153     0.0482413     0.0124372   -0.00953565   0.000616683  -0.000310859   0.000436278   0.000360777
      1.97518       -1.7993     -0.531607     0.0349796     0.0910373     0.0502716    0.00986827    -0.0109248 -3.30568e-005   0.000232569   0.000334677    0.00015092
      1.87578       -1.8069     -0.523477     0.0470565     0.0942228     0.0465763     0.0108441   -0.00922768   0.000428805   0.000530763  -0.000332036   0.000273505
       1.7305      -1.79029     -0.533358     0.0645982      0.103204     0.0501396    0.00864561    -0.0113109 -9.93257e-005 -1.92356e-005  -0.000772791 -1.06042e-007
      1.60061      -1.69927     -0.525657     0.0641362     0.0984479     0.0482394     0.0116939    -0.0117948    0.00043896    0.00063435   -0.00015234  -0.000222592
      1.49992      -1.58105     -0.507816     0.0407133     0.0937019     0.0425092     0.0142467    -0.0131302   9.4158e-005  -0.000868379 -8.19698e-006  7.34489e-005
      1.40566      -1.51099     -0.495667     0.0361484     0.0911897     0.0382627     0.0123573    -0.0130794  -0.000553437  -0.000330638  -0.000111597  -0.000146037
      1.27976      -1.39454     -0.482618      0.024758      0.085046     0.0296481     0.0101274    -0.0107476 -4.03396e-005   0.000212361   0.000329345   0.000123529
      1.13298      -1.23604     -0.454823    0.00772072     0.0774785      0.021629     0.0083666      -0.01019  -0.000300706  8.64203e-005   0.000352636  -0.000767112
     0.947275      -1.03469     -0.441694   0.000558336      0.061107     0.0177217    0.00518513   -0.00828584    0.00049437    0.00017842   0.000199953  -0.000212737
     0.765841     -0.834687       -0.4142   -0.00765836     0.0503921     0.0152305    0.00133401   -0.00780306 -8.05582e-005    0.00018712   0.000302884   0.000108083
     0.608933      -0.65919     -0.354663    -0.0115646      0.040538     0.0122658   -0.00398502   -0.00787304   0.000449219  5.88735e-005  6.90438e-006   0.000282649
     0.451432       -0.4924      -0.27971    -0.0179826     0.0409249     0.0112172     -0.007015   -0.00780987 -3.16716e-005  -0.000243425   0.000657633   0.000154837
     0.317008     -0.386631     -0.232095    -0.0262982     0.0496565     0.0072205    -0.0090029   -0.00996907  -0.000220071   0.000592517    -0.0001132  6.65576e-005
     0.211654     -0.319866      -0.22007    -0.0358629     0.0589881    0.00594511   -0.00820729   -0.00929645   0.000255438  -0.000489516   0.000398665   -0.00056041
     0.111229     -0.244326     -0.237718    -0.0515975     0.0657888    0.00408545   -0.00761982   -0.00784908   0.000413714  4.31032e-005 -1.72527e-005   0.000271205
   0.00323417     -0.158605     -0.275219    -0.0660548     0.0685484   -0.00207579   -0.00812922     -0.007597  -0.000750678  2.70632e-005  -0.000561335  -0.000233746
    -0.059228     -0.122483     -0.242544    -0.0626044      0.074361  -0.000220783   -0.00731364   -0.00925221 -4.04717e-005  -0.000155715   0.000823366  -0.000359745
   -0.0940719    -0.0998008      -0.19308    -0.0577418     0.0776037  -0.000190007   -0.00824383   -0.00952925   0.000120923   0.000488195   0.000571958 -1.38573e-005
    -0.136624    -0.0635469     -0.181334    -0.0580405     0.0766154    0.00119022   -0.00718683    -0.0103255    0.00024011   -0.00060467   0.000222934 -7.59484e-005
    -0.181247    -0.0285533     -0.171997    -0.0567928     0.0744483    0.00307366    -0.0089521   -0.00961927  -0.000116791  -0.000407933  -0.000303688   -0.00050486
    -0.224959     0.0080789     -0.169727    -0.0565539      0.071271    0.00627898   -0.00901404     -0.010455  -0.000152314   0.000159253   0.000257273   0.000100089
    -0.264375     0.0246241     -0.172152    -0.0494966     0.0710636    0.00706305   -0.00856002    -0.0130621   0.000112344    0.00038228   0.000403214   0.000489777
    -0.299611     0.0463822     -0.172703    -0.0474807     0.0731261    0.00795089   -0.00820373    -0.0127989   0.000404654  3.75661e-005 -1.85049e-005   0.000274398
    -0.324391     0.0748132     -0.173652    -0.0510866     0.0691314    0.00788034   -0.00517309    -0.0140747  -0.000952877 -4.70625e-005   0.000239915  3.47466e-005
    -0.354704      0.106546     -0.173638    -0.0525923     0.0654614    0.00652429   -0.00242337    -0.0135285  -0.000129282   0.000158267   0.000266789  9.40425e-005
    -0.389773      0.131096     -0.175916    -0.0524592     0.0671097    0.00862405   -0.00303566    -0.0145805    0.00021745 -3.94349e-005   0.000790999   0.000527927
    -0.420116      0.151592     -0.177786    -0.0546862     0.0677673    0.00911643   -0.00225216    -0.0146014  -0.000388072 -6.52695e-005   0.000129722  -0.000291686
    -0.443812      0.174934     -0.184552    -0.0575185     0.0669208    0.00861222  -0.000773761    -0.0130976 -9.37599e-005  -0.000410828  -0.000293714  -0.000510833
    -0.464791       0.19716     -0.189766     -0.061579     0.0629587    0.00825804   -0.00186258    -0.0155135 -2.26661e-006  -0.000832739  9.36345e-005  -0.000463831
    -0.485234      0.201417     -0.182638    -0.0538057     0.0640496     0.0116149   -0.00276294    -0.0139038   0.000982399   0.000123198  4.31651e-005  -0.000549234
    -0.506502      0.174139     -0.186901     -0.039145     0.0648994     0.0147124   -0.00287241    -0.0137962  -0.000644083  -0.000180856   0.000162095   -0.00117095
    -0.513445      0.175846     -0.184914    -0.0395212     0.0613227       0.01103   -0.00159257    -0.0122073  -0.000383036  4.08508e-005   0.000298859   -0.00078962
    -0.513228      0.194805      -0.17518    -0.0440157     0.0573651    0.00942998    -0.0022636    -0.0112556   0.000422739   0.000140158   0.000150604  -0.000231014
    -0.523318      0.205386     -0.173586     -0.045825     0.0555047    0.00908291   -0.00354395    -0.0125831  -0.000129854   0.000261111   0.000434667  -0.000401198
     -0.53006      0.210617     -0.166852    -0.0474646     0.0570655    0.00744377   -0.00411714    -0.0123248 -4.93086e-005  -0.000265126   0.000645637   0.000137077
     -0.54339      0.214011     -0.168058    -0.0486867     0.0575057    0.00784565    -0.0038384    -0.0126813 -4.15112e-005  -0.000159837   0.000817037  -0.000358075
    -0.558084      0.226826     -0.177283    -0.0523029     0.0575445    0.00769386   -0.00107816    -0.0133224   0.000143043   0.000588039   0.000746969  -0.000513213
    -0.568551      0.235204     -0.179706    -0.0551296     0.0574967    0.00714329   -0.00248322    -0.0129859  -0.000399155  -0.000174794 -4.45229e-005    0.00019875
    -0.578629      0.247017     -0.176636    -0.0594729     0.0610466    0.00827885   -0.00376339    -0.0130274 -1.51457e-005  -0.000834669  8.58542e-005  -0.000465373
    -0.578157      0.239989     -0.167964    -0.0589281     0.0647801    0.00705778   -0.00221132     -0.014929   -0.00030061  -0.000489353   0.000511361  -0.000251131
    -0.581174       0.23306     -0.153441    -0.0528731     0.0653138    0.00826251   -0.00204876    -0.0153741   0.000433114   0.000243905   0.000325118  -0.000723811
    -0.598976      0.236853     -0.167041    -0.0536852     0.0654975    0.00763974   -0.00146497    -0.0137734  -0.000383736  3.70561e-005   0.000297577  -0.000792085
    -0.610937      0.239838     -0.174288    -0.0527475     0.0638547    0.00721158   -0.00264279    -0.0139781  -0.000295772  -0.000383852   0.000682144  -0.000747335
    -0.614062      0.245792     -0.162936    -0.0515037     0.0618833    0.00801399   -0.00280381    -0.0165763   0.000344446   0.000662833 -5.44645e-005  -0.000766338
    -0.620866      0.249944      -0.16791    -0.0528353     0.0607417    0.00804428   -0.00276263    -0.0163762   0.000265718  -0.000400438   0.000573021   -0.00106627
    -0.630137      0.256508     -0.165985     -0.055394     0.0624079    0.00764888   -0.00294449    -0.0142445   -0.00010159  -0.000414389   -0.00029549  -0.000509418
     -0.64162      0.265872     -0.165553    -0.0558415     0.0657501    0.00705028   -0.00498134    -0.0147482   0.000131041   0.000585469    0.00074654  -0.000509296
    -0.649585      0.273534     -0.162328    -0.0599659     0.0655795    0.00832066   -0.00620794    -0.0143745  -0.000405461 -7.12503e-005    0.00012394  -0.000291112
    -0.657423      0.277608     -0.157512    -0.0525798     0.0570001    0.00815418   -0.00604519    -0.0148861  -0.000137208    0.00025729   0.000434461  -0.000398249
    -0.646722      0.277288     -0.154484    -0.0550186     0.0505502     0.0125679    0.00182943    -0.0168537  -0.000588911  -0.000248258   0.000763034   0.000461962
    -0.647719      0.283461     -0.153593    -0.0679508     0.0435128    0.00823429     0.0028315    -0.0185215   0.000437986  3.04129e-005 -1.34998e-005   0.000265717
    -0.655117      0.302892     -0.146219     -0.055003     0.0280756    0.00193877  -0.000892092    -0.0203684  -0.000121042  4.44147e-005   0.000101955   0.000590049
    -0.654064      0.318256     -0.172393    -0.0671933     0.0234395 -4.48901e-005    0.00624053    -0.0207803   0.000257186 -4.86604e-005   0.000801065   0.000515921
    -0.669741      0.321395     -0.195152    -0.0788245     0.0367636    -0.0011794    0.00500349    -0.0178186    0.00044363 -8.09718e-005  -0.000177367    0.00074779
    -0.670447      0.319048     -0.176904    -0.0742754      0.044289    0.00012183    0.00167853    -0.0155958   0.000427471 -8.01252e-005  -0.000184924   0.000750195
    -0.675413      0.321109     -0.174125    -0.0778588     0.0480239   0.000876589   0.000614163    -0.0163636   0.000158918  -0.000408547  -0.000494647   0.000860733
    -0.675837      0.305343     -0.158746    -0.0734078     0.0662642    0.00277662   -0.00611576    -0.0169461   0.000416441   0.000130953     0.0001546  -0.000229121
    -0.678868        0.3007     -0.161413    -0.0753867     0.0758538    0.00159394   -0.00976138     -0.012507    0.00012513  -0.000303803  -0.000334526   0.000371585
     -0.67806      0.302243     -0.147922    -0.0741926     0.0763995    0.00248057    -0.0111991    -0.0122585   0.000181271 -5.07204e-005   0.000776952   0.000524522
    -0.671955      0.296996      -0.12825    -0.0692483     0.0718845    0.00243655    -0.0108535     -0.015084 -7.82809e-005  -0.000377654   0.000469753   0.000636682
    -0.681455       0.30371     -0.129513    -0.0700316     0.0701276    0.00273959    -0.0121437    -0.0149965  9.33078e-005   0.000369817   0.000395415   0.000486123
    -0.703159      0.311451     -0.153653    -0.0754534     0.0761978    0.00181761    -0.0130531    -0.0147691  8.43624e-005   0.000262409   0.000228101   0.000979716
    -0.714333      0.307245     -0.167538    -0.0733493     0.0771495  -0.000149375    -0.0104843    -0.0134288   0.000481046  -0.000396912   0.000362149    0.00030706
     -0.70465      0.288933     -0.140672    -0.0682064     0.0768075    0.00241561   -0.00964232    -0.0160122   0.000564045   0.000668733  -0.000264442   0.000612318
    -0.707509      0.285039     -0.149237    -0.0675834     0.0767738    0.00153751   -0.00974552    -0.0154048   0.000102489   0.000370194    0.00040217   0.000481938
    -0.717069      0.282956     -0.155754    -0.0684935      0.077205   0.000960825   -0.00990783     -0.014333  -0.000157799   0.000146977   0.000262067  9.28532e-005
    -0.729506      0.281514     -0.160134    -0.0673874     0.0785528    0.00230548   -0.00925196    -0.0143235   0.000484637  -0.000394492   0.000363575   0.000309584
    -0.732128      0.282445     -0.161279     -0.066584     0.0764994    0.00207364   -0.00997436    -0.0134594  9.87971e-005   0.000369884   0.000400375   0.000479971
     -0.72695      0.284832     -0.152852    -0.0714662     0.0735405   0.000425474   -0.00923315    -0.0123017   0.000105443   0.000474639   0.000566814 -1.83022e-005
    -0.734997      0.289679     -0.161185    -0.0719607     0.0727141   0.000460186   -0.00919514    -0.0126212  -0.000158535   0.000146052   0.000258923  8.97113e-005
    -0.740423      0.285699     -0.166542    -0.0701809     0.0713985    0.00162397   -0.00987178    -0.0127847   0.000105414   0.000474314   0.000569565 -1.65412e-005
    -0.745723      0.286698     -0.158207     -0.072545     0.0753623    0.00146333   -0.00927141    -0.0147562  -0.000163029  4.09918e-005  9.17127e-005   0.000588391
     -0.74266      0.286296      -0.15987    -0.0753256     0.0740267   0.000557877   -0.00811913    -0.0155327  -0.000709185   0.000162645   0.000376278   0.000414631
    -0.734509      0.286732     -0.161917    -0.0759937     0.0735999    0.00203246    -0.0082128    -0.0145621  -0.000160477  4.10319e-005  9.13961e-005   0.000587569
    -0.753793      0.284724     -0.160111    -0.0729001     0.0731259  -0.000419979   -0.00760113    -0.0166119   0.000139308  -0.000304006  -0.000325285    0.00037258
    -0.763172      0.279217     -0.158911    -0.0692912     0.0725161   -0.00155756   -0.00693096     -0.015966  -0.000145082   0.000146343    0.00026697  8.95492e-005
    -0.765612      0.275123     -0.159879    -0.0700837     0.0751255    0.00179421   -0.00709762    -0.0157881   0.000200204 -4.99906e-005   0.000788245   0.000523454
    -0.781159      0.280165      -0.17235    -0.0717662     0.0772244    0.00227008   -0.00468675    -0.0159331   0.000403509 -7.98486e-005  -0.000184292   0.000757438
    -0.778449      0.286224     -0.164692    -0.0730432     0.0741974    0.00291123   -0.00529363    -0.0140762    0.00066277   0.000248185   0.000119528   0.000648924
    -0.774258      0.284582     -0.160455    -0.0732641     0.0698183    0.00113176   -0.00767781    -0.0149178  -0.000150901   0.000146203   0.000263027  9.15246e-005
    -0.774828      0.280154     -0.152294     -0.070478     0.0700131    0.00160211   -0.00746692    -0.0134635   0.000104703   0.000369755   0.000398355   0.000477796
    -0.787407      0.278241     -0.150667    -0.0697037     0.0753928     0.0051888   -0.00727966    -0.0130696  -0.000422096  -0.000179552 -5.18598e-005   0.000200664
    -0.799532      0.275962     -0.161095    -0.0707838     0.0769659    0.00702547   -0.00663738    -0.0147697   0.000399002  2.68731e-005 -1.99268e-005   0.000267479
    -0.789912      0.266793     -0.143701    -0.0672632     0.0785141    0.00701257   -0.00856145    -0.0153026   0.000197357  5.75338e-005   0.000953877  3.41029e-005
    -0.802173      0.275275     -0.161518    -0.0739418     0.0801077     0.0036477   -0.00705674    -0.0143382  1.53166e-005   0.000790173  1.84515e-005    0.00043502
    -0.809331      0.280754     -0.177774    -0.0813174     0.0810832  -0.000116886   -0.00713979    -0.0128623    0.00039735  2.28349e-005 -2.03879e-005     0.0002587
    -0.808156        0.2657     -0.170584    -0.0790614     0.0832866   0.000527963      -0.00856    -0.0138173   0.000394287  2.34562e-005 -1.99167e-005   0.000262338
    -0.817129       0.26864     -0.177814    -0.0811655     0.0844616   0.000839191   -0.00769491    -0.0116989  9.97414e-005   0.000367959   0.000399046   0.000473429
    -0.812748      0.271822     -0.167173    -0.0803078     0.0780414   -0.00144384    -0.0095416    -0.0109662  4.52842e-006   0.000786913  1.18447e-005   0.000429656
    -0.824839      0.275113     -0.174977    -0.0827216     0.0815572   -0.00393272    -0.0105077    -0.0117994   0.000470191  -0.000504913   0.000189085   0.000797405
    -0.830183      0.266674     -0.173229    -0.0825728     0.0871734   -0.00372704    -0.0113434    -0.0124632 -8.31717e-005  -0.000382721    0.00047303   0.000626339
    -0.813015      0.245601      -0.14006    -0.0737685     0.0837448   -0.00134713    -0.0109823    -0.0132499 -7.62178e-005  -0.000274058   0.000640097   0.000135673
    -0.820762      0.248347     -0.136581    -0.0746951     0.0831022   -0.00123523   -0.00959068    -0.0141341  -0.000161095   0.000146307   0.000258231  9.14629e-005
    -0.836817      0.255417     -0.144287    -0.0786775     0.0882506     0.0017123   -0.00991174    -0.0130776    0.00018195 -5.09742e-005   0.000778729   0.000523425
    -0.845581      0.257336      -0.13837    -0.0784689     0.0905999    0.00353888    -0.0107454    -0.0137299  -0.000427778 -7.57586e-005   0.000116901  -0.000291902
     -0.85338      0.256245     -0.144526    -0.0802953     0.0882909    0.00264389   -0.00823192    -0.0130622   0.000102685   0.000474965   0.000566258 -1.69758e-005
    -0.864778      0.257274     -0.155487    -0.0804444     0.0876773   0.000937888   -0.00592557    -0.0128091 -7.19399e-005  -0.000378965   0.000471767   0.000625731
     -0.87143      0.254139     -0.138735    -0.0800843      0.092912    0.00433924    -0.0086269    -0.0115414  -0.000344386  -0.000600586   0.000325768   0.000243204
    -0.874871      0.250763     -0.137362    -0.0797459     0.0930211    0.00271479   -0.00971859    -0.0103209  -0.000641884  -0.000256632   0.000745072   0.000456361
    -0.881322      0.245896     -0.140636    -0.0815025     0.0936812    0.00101583    -0.0103367   -0.00989255  -0.000609115  -0.000824903   0.000183814  -0.000146865
    -0.886434      0.237554     -0.125333    -0.0783811     0.0993757    0.00414857    -0.0116739    -0.0107973  -0.000187592  4.22482e-005  7.76312e-005   0.000589297
    -0.903145      0.243572     -0.133734    -0.0751454     0.0980363    0.00456158     -0.010143    -0.0110066   -0.00016823   0.000253439   0.000421882   -0.00040305
    -0.916128      0.251289     -0.145091    -0.0787541        0.0955    0.00189917   -0.00950316    -0.0104273    0.00018279  5.43048e-005   0.000945178  2.40763e-005
    -0.920198      0.247255     -0.144368    -0.0784403     0.0937192 -2.59626e-005   -0.00980609    -0.0113557  -0.000631772  -0.000152499   0.000920043 -4.05324e-005
    -0.939492      0.257388      -0.14594    -0.0782295      0.092423    0.00305186   -0.00845965   -0.00905837  -0.000179499  4.11381e-005  7.87219e-005   0.000581997
    -0.965245      0.278448     -0.139733    -0.0773872     0.0976418    0.00916319    -0.0105215   -0.00947376  -0.000733795   0.000269695   0.000530022  -7.8956e-005
    -0.967516      0.275195     -0.145505    -0.0794548     0.0958894    0.00561531    -0.0123763   -0.00986912  -0.000184547   0.000145615   0.000248768  9.31403e-005
    -0.966564      0.265111     -0.161789    -0.0850151     0.0920437  -0.000979095   -0.00911692   -0.00680357  -0.000176358   0.000143502   0.000247351  8.05093e-005
    -0.949393      0.228181     -0.168886    -0.0886963     0.0863512    -0.0082634   -0.00566375    -0.0061351   0.000185506 -5.51206e-005   0.000771717   0.000502213
    -0.937771      0.202657     -0.167157    -0.0894031     0.0855276    -0.0122826   -0.00555951   -0.00490691  -0.000162453   0.000141595   0.000247559  6.69222e-005
    -0.954405      0.205455     -0.174533    -0.0940103     0.0915518    -0.0122125    -0.0077316   -0.00457847   0.000129701 -9.89446e-005  -4.0354e-006  -0.000641919
     -0.97408        0.2153     -0.178299    -0.0986531     0.0964094    -0.0172486   -0.00718998   -0.00373969   0.000396474   0.000226949   0.000306151  -0.000756656
     -1.01731      0.254756     -0.143071    -0.0964164      0.116077   0.000593988    -0.0104764   -0.00466833  -0.000388155   0.000173693    0.00121506   -0.00015684
     -1.03935      0.268112     -0.120641    -0.0887965      0.127131     0.0126672    -0.0136923   -0.00861395  -0.000196001   0.000253396   0.000411649  -0.000397597
     -1.05945      0.274349      -0.11398    -0.0892497      0.132805     0.0155577    -0.0131661   -0.00759306    0.00064445  -0.000212066  -0.000296156  -0.000439119
      -0.9798      0.187639     -0.218085     -0.118241     0.0954667    -0.0240597   -0.00627217    0.00217994   0.000385867    0.00011686   0.000129289  -0.000275398
    -0.994694      0.187235     -0.199819     -0.110026      0.100722    -0.0199706   -0.00788449    0.00110012  -0.000436928 -8.69328e-005   0.000101399  -0.000333312
     -1.12637      0.293582    -0.0397221    -0.0726499      0.158845     0.0379709    -0.0200908    -0.0129006   0.000586359   0.000469766   0.000429539  -0.000299851
     -1.10065      0.260274    -0.0677592     -0.081487         0.145     0.0232639    -0.0197201   -0.00914866  -0.000407096    -0.0005959   0.000303886   0.000266766
     -1.07509      0.235552    -0.0986684    -0.0930756      0.132481    0.00795781    -0.0178786   -0.00734867  -0.000225119  4.05987e-005  6.31924e-005   0.000593589
     -1.09268      0.242002     -0.106922     -0.100219      0.130555     0.0094033    -0.0173297   -0.00767849   0.000158676  -0.000724887  2.48915e-005   0.000423586
     -1.09243      0.240186      -0.20616     -0.128083      0.116089    -0.0122325    -0.0130741   -0.00106594  -0.000205602  2.77747e-005  6.91091e-005   0.000561067
     -1.04871      0.183601     -0.281626     -0.147173     0.0927814    -0.0378724    -0.0120293    0.00532063  -0.000716304  -0.000534505  -0.000377528   0.000252135
     -1.12847      0.233567     -0.158974     -0.116093       0.13486    0.00150419    -0.0202451   -0.00309903   0.000413208  -0.000403377   0.000333444   0.000304464
      -1.2238      0.310276    -0.0739984    -0.0958577      0.174028      0.033622    -0.0232115    -0.0113482   0.000559807   0.000252518  8.83465e-005   0.000685713
     -1.18181      0.263176     -0.127112     -0.110753      0.148249      0.011465    -0.0189609   -0.00639253   0.000322861  2.12111e-005 -4.88133e-005   0.000270676
     -1.17497      0.251249     -0.128126     -0.111338      0.145573    0.00653387    -0.0198815   -0.00617938  6.46461e-005  -0.000203201  -0.000187555  -0.000119572
       -1.164      0.242082     -0.111376     -0.111599      0.144289    0.00683414    -0.0223671   -0.00762019  2.45313e-005   0.000364178   0.000371938   0.000487965
     -1.16006      0.240989      -0.10022     -0.114793      0.143889    0.00544476    -0.0248616   -0.00776037   -0.00024121    0.00014036   0.000229844   0.000102923
     -1.15789      0.234465     -0.106528     -0.116454      0.138118    0.00362382    -0.0248912   -0.00480035   0.000216698   0.000437458  -0.000441269   0.000227279
      -1.1589      0.233492     -0.110311     -0.122891      0.135634  -0.000963617    -0.0256921   -0.00330967  -0.000130175   -0.00095601  -0.000126478  3.13362e-005
     -1.17055      0.247741     -0.106166     -0.129121      0.140824    0.00019254     -0.024929   -0.00470415   0.000312659   0.000120105   0.000111271  -0.000227637
     -1.17846       0.24499       -0.1087     -0.133938      0.140556   -0.00158344    -0.0238936   -0.00385171  4.90593e-005  -0.000208853  -0.000199811    -0.0001231
     -1.18609      0.245633     -0.119313     -0.133222      0.134893  -0.000553846    -0.0249714   -0.00240782   0.000427139  -0.000974103  -0.000240595  -0.000293388
     -1.18383      0.240502     -0.120072     -0.145961      0.142997    0.00197039    -0.0202465   -0.00295171  -0.000238223   0.000136514   0.000220636  8.91436e-005
     -1.19964      0.246953     -0.116095     -0.150659      0.138016   -0.00412258    -0.0235959   -0.00382503  4.26247e-005  -0.000317333  -0.000371961   0.000369753
     -1.21447      0.262499     -0.117661     -0.139313      0.124683   -0.00740238    -0.0269616   -0.00364827  3.07247e-005  -0.000424574  -0.000542418   0.000866253
     -1.21902      0.263711      -0.11553     -0.148815      0.128617   -0.00601413    -0.0239855   -0.00299378  4.18988e-005  -0.000318684  -0.000373988   0.000367938
     -1.22083       0.26616     -0.105549     -0.150909      0.123817   -0.00724779    -0.0256444   -0.00295543   0.000595374  -0.000336293  -0.000489125  4.67167e-005
     -1.22585      0.268395     -0.103119     -0.151309      0.118418   -0.00772926    -0.0240129    -0.0034719  4.31866e-005  -0.000319678  -0.000376425   0.000368312
      -1.2448      0.271931     -0.106166     -0.154404      0.116827   -0.00822795    -0.0241173   -0.00353416   -0.00060507   0.000116033  -0.000647685   0.000646754
      -1.2587      0.278766     -0.110564     -0.154746      0.115152   -0.00857675    -0.0236751   -0.00371929  5.19798e-005  -0.000215649  -0.000204608  -0.000128259
     -1.26856      0.276362      -0.10539     -0.156726      0.114814   -0.00772427    -0.0238336   -0.00331647  -0.000425868  -0.000724455   0.000117505   0.000734521
     -1.26621      0.259448    -0.0888395     -0.151581      0.114335   -0.00684785    -0.0237033   -0.00402137  -0.000591201   0.000328218  -0.000308476  -0.000341568
     -1.27964      0.263022     -0.100734     -0.155178      0.114098   -0.00818953     -0.022693   -0.00302134  -0.000240864   0.000129769   0.000214111  8.57093e-005
     -1.28836      0.265778    -0.0955601     -0.155577      0.107527   -0.00951428    -0.0225412   -0.00509814 -3.96063e-005  9.90873e-005  -0.000758919   0.000324288
     -1.29904      0.270887    -0.0915978     -0.154796      0.105513    -0.0102773    -0.0217444   -0.00536735  5.31418e-005  -0.000321054  -0.000375386   0.000367165
     -1.32244      0.283885       -0.1075     -0.162371      0.104127     -0.011852    -0.0208948   -0.00315467   0.000262342   -0.00014225    -0.0010121  -0.000392353
     -1.31611      0.266763    -0.0877828     -0.155589     0.0960603    -0.0105708     -0.019121   -0.00649382   0.000238592    0.00042737   -0.00044744   0.000214343
     -1.32022       0.26335    -0.0752884     -0.154217     0.0911613     -0.010175    -0.0206266   -0.00640441  -0.000403438  -0.000618835   0.000288528   0.000240455
     -1.33774      0.272107    -0.0864062     -0.158998     0.0844955     -0.010348    -0.0175169   -0.00886927  -0.000575775   0.000115269  -0.000642263   0.000647119
     -1.35464      0.288854     -0.088796     -0.164306     0.0778032    -0.0109453     -0.014285   -0.00975069   0.000265616   0.000531603  -0.000271937  -0.000282059
     -1.38159      0.313276     -0.110929     -0.176162     0.0774673    -0.0146247    -0.0138642   -0.00758069   0.000354485    0.00010785   0.000109935  -0.000245649
     -1.40633      0.322405     -0.133603     -0.183432     0.0787301    -0.0182051    -0.0145116   -0.00813445  -0.000202014   0.000121248    0.00022657  7.40035e-005
     -1.40936      0.315328       -0.1124     -0.178191     0.0775357    -0.0157035    -0.0158197   -0.00907936   0.000351806    0.00010636   0.000112224  -0.000242962
     -1.41715      0.307842      -0.09121     -0.173905     0.0813826    -0.0127914    -0.0191643      -0.01047   0.000892847 -1.43678e-005  -0.000172498 -6.18952e-005
     -1.44027      0.319283     -0.108083     -0.180124     0.0853043    -0.0127673    -0.0200252   -0.00718442   0.000877173  -0.000121445  -0.000347722   0.000429457
     -1.46191      0.331635     -0.119948     -0.188895     0.0948567     -0.014418    -0.0228229   -0.00354882   0.000310484 -2.12775e-006 -7.12471e-005   0.000252749
     -1.47363      0.325526     -0.104868     -0.188305      0.105753     -0.013593    -0.0261741   -0.00430999   0.000592212  -0.000346553  -0.000494536  4.31905e-005
     -1.47772      0.327133    -0.0806557     -0.183059      0.107779    -0.0115394    -0.0274199   -0.00693728    0.00112134   0.000311203   0.000126072  -0.000166215
     -1.48738      0.333697    -0.0714181      -0.18448      0.105087   -0.00939181    -0.0287377   -0.00758278   0.000851432  -1.6803e-005  -0.000185857 -5.36863e-005
     -1.50096      0.343499    -0.0879038     -0.188004     0.0950715     -0.012057    -0.0265235   -0.00647061   0.000941866  -0.000544049  2.72941e-005   0.000479589
     -1.51242      0.360979    -0.0875944     -0.197816     0.0907364     -0.013266    -0.0252324    -0.0071846   0.000395016  -0.000423737   0.000309853   0.000305273
     -1.52913      0.362133    -0.0870136     -0.196053     0.0884381    -0.0122572    -0.0210969   -0.00942268    0.00048913   0.000640537  -0.000311822   0.000603756
     -1.52324      0.354742    -0.0763053     -0.204348     0.0884522    -0.0140519    -0.0225391     -0.010063  5.82577e-005  -0.000226254  -0.000209155  -0.000125422
     -1.52783      0.352435    -0.0575223     -0.207338     0.0901818    -0.0114793    -0.0254817    -0.0118388   0.000342418  -0.000570665  -0.000633194  -0.000331916
     -1.55414      0.349667     -0.062552     -0.184597     0.0888893   -0.00865526    -0.0248276   -0.00981833   0.000872895  8.87034e-005 -1.29521e-005  -0.000549026
     -1.56339      0.352343    -0.0656422     -0.190775     0.0866981    -0.0115813    -0.0242629   -0.00963302   0.000478679   0.000640856   -0.00031594   0.000609165
     -1.57741      0.361707    -0.0783479     -0.197244      0.084316    -0.0128554    -0.0231543    -0.0107061 -3.89462e-005   8.8506e-005  -0.000761227   0.000328325
       -1.591      0.355636    -0.0829042     -0.198082      0.088189    -0.0130279    -0.0233186    -0.0113104   0.000316654 -3.65759e-006 -6.59551e-005   0.000264451
     -1.57969      0.334438    -0.0575312     -0.192805     0.0881107    -0.0102636    -0.0234744    -0.0127965  5.77061e-005  -0.000223671  -0.000206581  -0.000117037
     -1.57438      0.325048    -0.0409205     -0.185107     0.0809039   -0.00962236     -0.023639    -0.0125988  2.94181e-005   0.000450521   0.000522124 -8.54618e-006
     -1.59906      0.311822    -0.0547381     -0.174225     0.0794129   -0.00869676    -0.0255122     -0.011266   0.000575108   0.000329023   0.000240096   0.000165151
     -1.61615      0.325436    -0.0690803     -0.176827     0.0738599   -0.00965699    -0.0229329    -0.0107956   0.000576332   0.000222719  7.12251e-005   0.000655896
     -1.61565      0.366677    -0.0682222     -0.199721     0.0691596    -0.0144308    -0.0187564    -0.0098486  6.21976e-005   -0.00033172  -0.000381492   0.000366701
      -1.6313      0.393945    -0.0753084     -0.208341     0.0673764    -0.0168943    -0.0158419    -0.0108436  -0.000123283  -0.000303524   0.000597561   0.000124878
     -1.63973      0.405057    -0.0757599     -0.210632     0.0668344    -0.0178536    -0.0166534    -0.0111047  -0.000466276 -1.83494e-006   0.000245944  -0.000801635
     -1.64428      0.354817    -0.0526667     -0.186154      0.074804    -0.0120038    -0.0199426    -0.0108368   0.000534025   0.000179749  -0.000704881  -0.000490571
     -1.65965      0.304683    -0.0574944     -0.162822     0.0790598   -0.00807651    -0.0209708    -0.0108933   0.000322284  3.21336e-006 -6.62405e-005   0.000268284
     -1.66819      0.319273    -0.0682946     -0.168666     0.0744476    -0.0120022    -0.0188884     -0.011068  -0.000303126   0.000648551  6.53074e-006  -0.000449545
     -1.67957      0.345042    -0.0854434     -0.177486     0.0706308    -0.0162895    -0.0184467     -0.011394   0.000335845 -2.36825e-006 -6.06107e-005   0.000257665
     -1.69072      0.357202       -0.1042     -0.179513      0.068906    -0.0166616    -0.0175573    -0.0102406   -0.00030333    0.00053864  -0.000160166  3.75059e-005
     -1.67852      0.361335     -0.086335      -0.17794     0.0608858    -0.0172588    -0.0184312    -0.0109598    0.00024687   0.000416636  -0.000445413   0.000212782
     -1.67485      0.363243    -0.0784456     -0.174511     0.0556166    -0.0169659    -0.0187315    -0.0119578   0.000248147   0.000417023  -0.000444998   0.000215168
     -1.69107      0.370608    -0.0878451     -0.171594     0.0572254    -0.0159212    -0.0187187    -0.0116664  -0.000478935  -0.000209026 -8.72919e-005   0.000194242
     -1.69618      0.378953    -0.0971716     -0.172299     0.0541628    -0.0191687     -0.019215    -0.0121124   8.1535e-005  -0.000227455  -0.000196514  -0.000130577
     -1.70188      0.384473     -0.110849     -0.174214     0.0496669     -0.020613    -0.0189599    -0.0117617  -0.000119244  -0.000304208   0.000609955   0.000125681
     -1.69893      0.391739     -0.112212     -0.172032     0.0457638    -0.0212186    -0.0185696      -0.01107   -0.00047339  -0.000212378 -8.38728e-005   0.000188222
     -1.69525      0.395105     -0.111599     -0.169638      0.042026    -0.0223937    -0.0166078    -0.0103481  -0.000202548   0.000116038   0.000225607  7.64277e-005
      -1.6934      0.391254     -0.114976     -0.164202     0.0405359    -0.0217609    -0.0150027    -0.0103964 -2.15376e-005   0.000865389   0.000154207 -7.67087e-005
     -1.68331      0.382287     -0.112935     -0.156716     0.0380182    -0.0217317    -0.0133874     -0.013964   0.000373751   0.000102133   0.000124019  -0.000244678
     -1.68272      0.393818     -0.121641     -0.155447     0.0305092    -0.0236674     -0.011772    -0.0126276 -8.97488e-005  -0.000302136   0.000618866   0.000116991
     -1.67596      0.398154     -0.130646     -0.153694      0.025028    -0.0267755    -0.0101225    -0.0121532  -0.000465247   0.000461771   0.000659435   0.000282661
     -1.66592      0.390645     -0.143905     -0.149234     0.0215992    -0.0305284   -0.00964645    -0.0101674   0.000394889   0.000205134   0.000296492    -0.0007561
     -1.66165      0.392665     -0.145444     -0.145823     0.0210401    -0.0305001   -0.00871238   -0.00944683   0.000941267 -2.16684e-005  -0.000157068 -8.98952e-005
     -1.65955      0.396038     -0.142823     -0.140236     0.0251581    -0.0303768    -0.0097085    -0.0118386  9.87868e-005   0.000445464   0.000552832 -4.45189e-005
     -1.65969      0.405014     -0.150456     -0.135305     0.0247383    -0.0307328    -0.0111514    -0.0119996   0.000654898   0.000428463   0.000442941  -0.000366375
     -1.66265      0.407018       -0.1575     -0.128415     0.0286797    -0.0284692    -0.0107465    -0.0122005   0.000390948   0.000101811   0.000136075  -0.000257322
     -1.65293      0.401571     -0.160995     -0.121289     0.0272567    -0.0288292   -0.00937816    -0.0121273    0.00028328  -0.000392584    0.00132676  4.32896e-005
     -1.63721      0.387862     -0.156321         -0.11     0.0246529     -0.027135   -0.00843077    -0.0122085   0.000741457  -0.000197437   0.000491201   0.000668662
     -1.62668      0.372222     -0.150224    -0.0911241     0.0211661    -0.0246434    -0.0115782    -0.0126002   0.000910228   0.000553046   0.000418692   0.000523371
     -1.58895        0.3576     -0.138245    -0.0771831     0.0084875    -0.0263319    -0.0114563    -0.0106639   0.000297223   0.000423857  -0.000417586   0.000198415
     -1.56312      0.384567     -0.135201    -0.0884651    0.00452013    -0.0297845   -0.00749653    -0.0125369   0.000402466  2.27624e-006 -3.11401e-005   0.000237154
     -1.55149      0.414369     -0.141435     -0.097813    0.00561924    -0.0310818   -0.00346663    -0.0146625   0.000772843 -9.05703e-005   0.000667605   0.000168886
     -1.54689      0.412292     -0.159612    -0.0849221    0.00589052     -0.031427   -0.00233469    -0.0148496   0.000221881 -7.28746e-005   0.000786325   0.000489383
     -1.53136      0.404067     -0.161178    -0.0720306    0.00401872    -0.0310105   -0.00409699    -0.0142798   0.000776334 -8.82576e-005   0.000674925   0.000168491
     -1.50101      0.393084     -0.147096    -0.0634275    0.00153246    -0.0301963   -0.00804929    -0.0129068    0.00014248  -0.000323538  -0.000333556   0.000345289
     -1.49798      0.411749     -0.189827    -0.0673049   0.000151539    -0.0360501   -0.00627891    -0.0105529   0.000504998  -0.000418925   0.000364066   0.000269395
     -1.47729      0.416541     -0.202953    -0.0630361   -0.00475817    -0.0373263   -0.00338459    -0.0109201   0.000441193   0.000212379   0.000327106  -0.000769405
     -1.44371      0.394598     -0.173619    -0.0429905   -0.00517368    -0.0339561   -0.00459532    -0.0120637   0.000431918   0.000111413   0.000155806  -0.000266821
     -1.42333      0.402264     -0.187952    -0.0386179   -0.00883611     -0.035393    -0.0025375    -0.0105784   0.000989664  -1.0471e-005  -0.000125528 -9.97452e-005
     -1.40395      0.421688     -0.195731    -0.0395018    -0.0129171    -0.0369208 -6.37104e-005   -0.00960346   0.000473161  -0.000561681  -0.000574084  -0.000384437
     -1.38047      0.433217     -0.199293    -0.0397615    -0.0139914    -0.0354078    0.00110488   -0.00878501   0.000537116   -0.00030836   0.000539777  -0.000235202
     -1.34939      0.436341     -0.207529    -0.0357019    -0.0154457    -0.0348013    0.00107805   -0.00915925    0.00044961   0.000112221    0.00015922  -0.000278442
     -1.34199      0.434044     -0.213355    -0.0236458     -0.021025    -0.0380324   0.000821274   -0.00751884     0.0010848  -0.000535309   8.9438e-005   0.000429401
      -1.3229       0.44414     -0.217444    -0.0204296    -0.0242265    -0.0373279   0.000468489   -0.00835713  -0.000281446  -0.000619285   0.000347398    0.00019387
     -1.28887      0.450861      -0.22106    -0.0201931    -0.0272454    -0.0359428   0.000878061   -0.00836163   0.000195535  -0.000109835  2.30057e-005  -0.000667397
     -1.26471      0.447832     -0.228928    -0.0144226    -0.0313548    -0.0344711    0.00159954   -0.00805109   0.000288452  -0.000528735   0.000407584  -0.000623281
     -1.23806      0.443412      -0.23328   -0.00632142    -0.0325544    -0.0349555  -0.000154235    -0.0076781   0.000202339 -2.90943e-006   0.000195975   -0.00116154
     -1.21155      0.439913     -0.238734    0.00128749    -0.0371549    -0.0337974    0.00100723   -0.00795746   0.000731798   0.000549338   0.000647533  -0.000882084
     -1.18417      0.443698     -0.239372    0.00434239    -0.0377814    -0.0295381    0.00128778    -0.0074804 -5.87017e-005  -0.000327647  -0.000112576   -0.00105041
      -1.1581      0.433675      -0.23764     0.0108985    -0.0366309    -0.0291808    0.00121915   -0.00788031   0.000201176  -0.000103657  2.83026e-005  -0.000662064
     -1.13205      0.429478     -0.239366     0.0160488    -0.0365399    -0.0266771   0.000408893    -0.0079047  -0.000359297 -8.57375e-005   0.000140666   -0.00033629
     -1.11022      0.434744     -0.247595     0.0180034    -0.0349865    -0.0252088   -0.00143075   -0.00730515  -0.000365136  -8.5707e-005   0.000140398  -0.000334309
     -1.08689      0.419975     -0.253085     0.0271642     -0.039357    -0.0246843  -0.000481679   -0.00699665   0.000462956   0.000227417   0.000340055  -0.000765581
     -1.06029      0.411981     -0.253332     0.0345315    -0.0374319    -0.0224877  -0.000492743   -0.00897175  -0.000349885  2.32051e-005    0.00031789  -0.000826071
     -1.03813      0.410575     -0.258932     0.0364887    -0.0366739     -0.021299    0.00163344   -0.00922071  -0.000336116   0.000129916   0.000491072   -0.00132271
     -1.01609      0.407033     -0.273189     0.0356845    -0.0378585    -0.0208904    0.00300761   -0.00651009   0.000208559 -9.72124e-005  3.50667e-005  -0.000659136
    -0.992899      0.406755     -0.277883     0.0385666    -0.0356214    -0.0178537    0.00180424   -0.00674866   0.000204981 -9.61547e-005  3.58502e-005  -0.000655336
     -0.95827      0.390114     -0.268432     0.0445735    -0.0352667    -0.0177878    0.00271984   -0.00859158   0.000728355   0.000351044   0.000317571   0.000121196
    -0.931428      0.383116     -0.270984     0.0492702    -0.0320672    -0.0153795    0.00360361   -0.00704326  8.64511e-005   0.000895058   0.000215428 -9.62148e-005
    -0.905883      0.383489     -0.276723     0.0377258    -0.0240329     -0.011437    0.00729435   -0.00486804 -8.65338e-005   0.000148385   0.000284692  5.20395e-005
    -0.890385      0.391509     -0.287512     0.0338188    -0.0324172    -0.0159477    0.00663142   -0.00523922  -0.000252114  -0.000497091   0.000530831  -0.000293967
      -0.8815      0.395664     -0.309257     0.0463206    -0.0440749    -0.0187615    0.00465159   -0.00624529   0.000736293   0.000350488   0.000320767   0.000114644
    -0.850803      0.377305     -0.305038     0.0425894    -0.0366377    -0.0139396    0.00615833   -0.00654424 -7.24728e-005   0.000252401   0.000463517  -0.000442361
    -0.826872      0.365376      -0.29583     0.0446646    -0.0342189    -0.0119388    0.00674486   -0.00719053   0.000187297    0.00047692   0.000602598  -5.2729e-005
    -0.816386      0.362847     -0.310388     0.0440613     -0.030579    -0.0100931     0.0106956     -0.009348  -0.000355776    0.00049497   0.000722787   0.000268851
     -0.80669      0.364377     -0.318324     0.0418336    -0.0241035   -0.00932209      0.010507    -0.0079878   -0.00061785   0.000272327   0.000582452  -0.000119967
    -0.789374      0.369775     -0.317443     0.0396355    -0.0247346   -0.00999428    0.00724869   -0.00771207   0.000558409  -0.000498476   0.000227304   0.000767385
    -0.777888      0.365598      -0.31274      0.042324    -0.0177218   -0.00647817    0.00855669   -0.00759373  1.48483e-005  -0.000268688   0.000680486   0.000100486
    -0.773714       0.35933     -0.300144     0.0469783   -0.00904323   -0.00197562    0.00863275   -0.00836334   0.000474065  3.22268e-005  1.43995e-005   0.000233836
    -0.747482      0.350841     -0.307751     0.0449391    -0.0114117   -0.00330014    0.00707806   -0.00789287  -0.000728614   0.000589802  2.54278e-005   0.000340121
    -0.711885      0.336689     -0.310359     0.0464304    -0.0203908   -0.00615649    0.00475725   -0.00775467   0.000377903    0.00044999  -0.000369961   0.000191081
    -0.707676      0.343411     -0.306495     0.0434093     -0.015669   -0.00297142    0.00547393    -0.0065416   0.000206018   -0.00019163  -0.000129543   -0.00015205
    -0.704141      0.344545     -0.311566     0.0422247    -0.0078411  -0.000584979    0.00562657   -0.00808742 -9.22875e-005  4.84131e-005   0.000125567   0.000560667
     -0.67588      0.327093      -0.29003     0.0469147    -0.0100052    0.00139278    0.00698094    -0.0112851 -7.72367e-005   0.000156482     0.0002993  7.06369e-005
    -0.652468      0.315456     -0.268928      0.050657     -0.010713    0.00473243    0.00416725    -0.0118446   0.000178523   0.000486245   0.000604994 -2.96627e-005
     -0.61624      0.287174     -0.238869     0.0601459    -0.0125324     0.0072159    0.00112354    -0.0141627   0.000103258   0.000130732  -0.000681754   0.000325471
    -0.593639      0.274821     -0.227866     0.0609308    -0.0123466    0.00526183   -0.00116939    -0.0122887   0.000748845  -0.000200873  -0.000245641  -0.000449171
    -0.598162      0.293088     -0.261287     0.0504309    -0.0151117     0.0022501    0.00192626   -0.00990641   0.000283956   0.000981256  -0.000589199  -0.000332549
    -0.619603      0.316991     -0.329211     0.0330148    -0.0163557   -0.00397371    0.00861524   -0.00570574  -0.000173478   0.000467742   -0.00025974   0.000508934
    -0.636372      0.350489     -0.392152     0.0110561    -0.0164519   -0.00858462     0.0121832   -0.00399303   0.000234853 -9.16198e-005  4.94649e-005  -0.000665627
    -0.618312      0.337958     -0.372918     0.0132002    -0.0127153   -0.00758977     0.0120601   -0.00499192   0.000227329  -0.000195401  -0.000122196  -0.000167266
    -0.606184      0.315763     -0.346308     0.0214695    0.00104615   -0.00305472    0.00708393   -0.00531774  -0.000356241  -0.000281523  -0.000185139   0.000660964
    -0.600153      0.306219     -0.358211     0.0214233    0.00277579   -0.00400447    0.00876292   -0.00439058  -0.000617053  -0.000609472  -0.000493526   0.000765009
    -0.587293      0.289862     -0.346602     0.0258566    0.00458201  -0.000158587     0.0096002   -0.00534365 -5.02885e-005  -0.000517825  -0.000434806 -4.88916e-005
    -0.561836      0.269419     -0.334611     0.0289734    0.00240063   -0.00179118     0.0118442   -0.00444357 -3.78577e-005  -0.000410999  -0.000266293  -0.000547853
    -0.502586      0.213719     -0.354378     0.0204117    -0.0107877    -0.0185446     0.0143171   -0.00308612   0.000237479  -0.000193302  -0.000123716   -0.00017716
    -0.522907       0.23664     -0.294388     0.0335837      0.011453    0.00596124    0.00628927   -0.00897813  9.80236e-006  -0.000154516   0.000847706  -0.000377893
    -0.569501      0.289878      -0.24545     0.0467129     0.0311028     0.0252547    0.00164378    -0.0135202  -0.000170257  -8.5655e-005  -0.000823515 -5.13846e-005
    -0.551976      0.275187     -0.272862      0.033513     0.0258916     0.0143086    0.00387397    -0.0112688   -0.00071189   3.1532e-005  -0.000539431   -0.00023854
     -0.54075      0.260601     -0.288099     0.0291848     0.0297739     0.0115577    0.00503226    -0.0096255  -0.000354442 -6.13392e-005   0.000153964  -0.000308694
    -0.533449      0.250629     -0.303384     0.0283171     0.0322201     0.0061029    0.00508348    -0.0089635   0.000465271   0.000142873   0.000184181  -0.000250144
    -0.523596      0.249621     -0.293769     0.0274108     0.0324834    0.00653172    0.00245832   -0.00851361   0.000190637  -0.000185545  -0.000129534  -0.000138886
    -0.515135      0.250293     -0.288201     0.0257371     0.0296513    0.00645888   -0.00158024    -0.0069184   0.000441444   0.000141293   0.000173928  -0.000243969
    -0.510275      0.247327     -0.294323     0.0255376     0.0292564    0.00608639    -0.0018918   -0.00668932   0.000344288   0.000455609  -0.000379475   0.000207132
    -0.508548       0.25013      -0.29544     0.0205955     0.0314931    0.00644216   0.000347993   -0.00812244   0.000610642   0.000678526  -0.000237251   0.000593664
      -0.5031      0.247162     -0.295793      0.017028     0.0323676    0.00457852  -0.000485505   -0.00874541  -0.000109842   0.000156658   0.000290483  7.76313e-005
    -0.502895      0.243016     -0.288206     0.0190139     0.0362801    0.00542123  -0.000646733   -0.00655725   0.000442469   0.000141037   0.000173351  -0.000246521
    -0.502813      0.239291     -0.290773     0.0198806     0.0372438    0.00316687  -0.000412163   -0.00445476   0.000175325  -0.000187543   -0.00013909  -0.000143044
    -0.507683      0.240389     -0.294687     0.0191492     0.0395335    0.00574742    -0.0012273   -0.00464926   -0.00018324 -9.51761e-005  -0.000832038 -7.59468e-005
     -0.50532      0.241594     -0.294208     0.0163256     0.0405971    0.00546177  -0.000769063   -0.00442053  8.25694e-005   0.000232721   -0.00052291  -0.000185102
    -0.509262      0.248222     -0.287584     0.0181975     0.0428262     0.0072604   -0.00358679   -0.00491588  -0.000387534 -6.53184e-005   0.000141821   -0.00030885
    -0.515419       0.24713     -0.291404     0.0181279     0.0424921    0.00718989   -0.00261102   -0.00448281   0.000341504   0.000560972   -0.00021415  -0.000289893
    -0.522231      0.249944     -0.285687     0.0189636      0.047812     0.0100255   -0.00169001   -0.00358025  8.12399e-005    0.00033984  -0.000355727   -0.00067705
    -0.522237      0.254635     -0.280404      0.017813     0.0503975     0.0121991   -0.00156531   -0.00494413   0.000158006  -0.000290312  -0.000312632   0.000360809
     -0.50575      0.245337     -0.289654     0.0148907     0.0514557    0.00797773  -0.000635452   -0.00335639   0.000425905  3.65196e-005 -3.12592e-006   0.000246149
    -0.501094       0.23822     -0.290547     0.0124832     0.0578832     0.0074275   -0.00121344   -0.00504212   0.000168461  -0.000186383  -0.000138613  -0.000139468
    -0.441495      0.185526      -0.35402    -0.0041692     0.0349705    -0.0163275    0.00231382  -0.000341712   0.000183079  -0.000301288  -0.000304836   0.000327401
    -0.478806      0.217574     -0.308658    0.00741185     0.0561048 -1.06004e-005   0.000920838   -0.00549341   0.000153437   0.000484069   0.000598934 -4.11307e-005
    -0.537764      0.265712     -0.235971     0.0242771     0.0851317     0.0252478   -0.00247331    -0.0119342   0.000801921  -0.000720108 -3.45429e-005   0.000100595
    -0.493175      0.227162      -0.29049    0.00986605     0.0678545    0.00477686    0.00179795   -0.00687502 -7.80096e-005   -0.00040863   -0.00027156   -0.00053073
    -0.486367      0.219919     -0.287819    0.00963242     0.0647132    0.00474316    0.00250219   -0.00815541 -7.33877e-005  -0.000408317  -0.000269662  -0.000529513
    -0.475388      0.222181     -0.274542     0.0112789     0.0571467    0.00551061    0.00146422   -0.00780345   0.000187994 -7.99406e-005  3.59362e-005  -0.000635075
    -0.483297      0.222057     -0.279688    0.00859196     0.0639889    0.00497216    0.00102108   -0.00690727   0.000360037   0.000667691 -3.81054e-005  -0.000788848
    -0.480639      0.207857     -0.265022     0.0162939     0.0660604     0.0069906   -0.00152982   -0.00771911 -9.48529e-005   -0.00051246  -0.000446114 -2.72016e-005
    -0.471285      0.204256     -0.244645     0.0214569     0.0663847    0.00806917   -0.00482283   -0.00725249   0.000627122   0.000219865    -0.0006367  -0.000497049
     -0.47528      0.214176     -0.244264     0.0148956     0.0706373     0.0092257   -0.00549454   -0.00832104   0.000332191   0.000563915  -0.000214214   -0.00028007
    -0.473156      0.226915     -0.254073    0.00673949     0.0645341    0.00487102   -0.00285819   -0.00748543   0.000437596   0.000247039   0.000339921  -0.000739198
    -0.472633      0.229823     -0.253814    0.00878905     0.0623275    0.00485982   -0.00351606    -0.0081281   0.000172159 -8.11777e-005  3.12127e-005  -0.000629583
    -0.466388       0.22599     -0.257466    0.00738197      0.059266    0.00138879   -0.00124396   -0.00876981   0.000182228 -8.18629e-005  3.44133e-005  -0.000634063
    -0.460795      0.230575     -0.252452    0.00560915     0.0637945  -0.000407736   -0.00288176   -0.00693307   0.000256926  -0.000608271   0.000242555 -9.68035e-005
    -0.436495      0.211031     -0.230687     0.0147472     0.0646174   0.000171595   -0.00787361   -0.00782109   0.000419438   0.000140858   0.000166654  -0.000240617
    -0.418965      0.202309     -0.220678     0.0121038     0.0594193   -0.00182669   -0.00801887   -0.00848508   0.000420995   0.000140318   0.000165582  -0.000240267
    -0.426762      0.215172     -0.236729    0.00780128     0.0582363    -0.0032604   -0.00695421   -0.00739014  -0.000100182  -0.000411899  -0.000282733  -0.000523952
    -0.431679      0.221829     -0.248746    0.00640216     0.0529398    -0.0047407     -0.005857   -0.00817063   0.000813091  -0.000626904   0.000131271  -0.000417278
    -0.432238      0.228153     -0.250232    0.00504382     0.0514302   -0.00629311   -0.00499626    -0.0072831   0.000521866   -0.00028285    0.00055202  -0.000206007
    -0.437103      0.232495     -0.254429    0.00764543     0.0484529   -0.00646539   -0.00232705   -0.00817946   0.000266771  -0.000610315   0.000246003  -0.000100023
    -0.436623      0.235142      -0.25166     0.0088099     0.0404473   -0.00639572   0.000183105   -0.00808129   0.000184544   -0.00018963   -0.00013762   -0.00014599
    -0.437667      0.242782     -0.242912     0.0101063     0.0347425   -0.00526377     0.0029345   -0.00930295   0.000752098  -0.000205003  -0.000248413  -0.000468693
    -0.453121      0.249198     -0.245793     0.0100494     0.0340149   -0.00513892     0.0040589    -0.0110885 -5.80476e-005  -0.000411161  -0.000271189  -0.000532671
    -0.464009      0.254209     -0.254009     0.0096209     0.0352478   -0.00479513    0.00561254   -0.00956438   0.000202018  -0.000188334  -0.000133002  -0.000149064
    -0.469471      0.257032     -0.250891      0.013073     0.0328754   -0.00325164    0.00322681   -0.00908465  -0.000161199 -9.63071e-005  -0.000828563 -8.13092e-005
    -0.470017       0.25231     -0.242247     0.0180023      0.038716   -0.00389488   -0.00197186    -0.0063981 -8.44783e-005  -0.000411549    -0.0002817  -0.000530767
     -0.47231      0.257552     -0.237644     0.0166785     0.0450981   -0.00397222   -0.00477669   -0.00483222   0.000168692 -8.41568e-005  2.36193e-005  -0.000638104
    -0.475035      0.256677     -0.239962     0.0141512     0.0547832   -0.00459892   -0.00711134   -0.00394607  6.27921e-005   0.000229646  -0.000531781  -0.000186483
     -0.47383       0.24489     -0.236746      0.016309     0.0619713   -0.00395315    -0.0087474   -0.00245184  -0.000114296  -0.000412504   -0.00029078  -0.000529385
    -0.477665      0.256101     -0.245263     0.0132808     0.0590647   -0.00502083   -0.00543791   -0.00468005  -0.000657887  -0.000396289  -0.000172138  -0.000209077
    -0.485305      0.274668      -0.26914    0.00690431     0.0504464   -0.00906344    -0.0041468   -0.00363569   0.000164775  -0.000193237  -0.000143329  -0.000151243
     -0.47993      0.277472     -0.268591    0.00858021     0.0436841   -0.00940993   -0.00235256   -0.00452111 -8.57291e-005  -0.000415581  -0.000280427  -0.000539278
      -0.4806      0.284344     -0.267378    0.00719749     0.0406909    -0.0097395  -0.000257608   -0.00599261  -0.000201243   0.000571945 -9.97096e-005  1.79381e-005
    -0.483674      0.290166     -0.268483    0.00717168     0.0366856     -0.010958    -0.0016982   -0.00476811  -0.000116576   0.000150748   0.000280664  6.11302e-005
    -0.468293      0.285587     -0.251805     0.0130714     0.0281619     -0.011716    -0.0010164   -0.00686383   0.000183087  -0.000192937  -0.000139368  -0.000151002
    -0.471126      0.297992     -0.260422    0.00846987     0.0240705    -0.0132891   -0.00194188   -0.00595107  -0.000460947   0.000347161  -0.000241396   -0.00036928
     -0.47824      0.320949     -0.280879  -0.000545363     0.0174733    -0.0151612    0.00279145   -0.00370717  6.71391e-005   0.000790996  3.60983e-005    0.00039526
    -0.475998      0.323932      -0.28039   0.000214336     0.0137371    -0.0165959    0.00209047   -0.00286813  -0.000661899   0.000164071   0.000390392   0.000373431
    -0.493562      0.301668     -0.298001     0.0120122     0.0149636    -0.0152402    0.00160903   -0.00311843   0.000372964   0.000657773 -4.08508e-005  -0.000809809
    -0.503238      0.291495     -0.312153     0.0143705      0.014582      -0.01408    0.00277193   -0.00355119   0.000922381   0.000430996  -0.000490405  -0.000141876
    -0.481256      0.293471     -0.281851     0.0162248    0.00873796    -0.0134116    0.00178527    -0.0055315   0.000104782   0.000225824  -0.000519876  -0.000200841
    -0.484464      0.304229     -0.275675     0.0121644     0.0097703    -0.0147647    0.00195272   -0.00584654    -0.0011729  -0.000279211   0.000118334  -0.000395251
    -0.496141      0.302077     -0.285033     0.0121258     0.0134283    -0.0147879    0.00240029   -0.00510818   0.000105348   0.000224928   -0.00051974  -0.000203888
    -0.464685      0.259206     -0.236256     0.0335494    0.00637839   -0.00892525   0.000449983    -0.0109527   0.000400483  -0.000113904  -0.000938053  -0.000401233
      -0.4684      0.276506     -0.249832     0.0279241    0.00177558    -0.0125362    0.00066048    -0.0108072  -0.000182112   0.000572754 -9.26901e-005  2.38959e-005
    -0.484312      0.297984     -0.274061     0.0185963    0.00372276    -0.0153394  -0.000343868   -0.00703212   -0.00061707  -0.000296026  8.11326e-006  -0.000713991
    -0.466107      0.283449     -0.239964     0.0252493    0.00179208    -0.0134194   -0.00236168   -0.00991272  -0.000451465   0.000348816  -0.000236763  -0.000361601
    -0.470325      0.294822     -0.256085     0.0217648   -0.00385896    -0.0149688  -0.000436606    -0.0100532 -6.06614e-005  -0.000417178  -0.000272286  -0.000536029
    -0.473868      0.297645     -0.264074     0.0242731    -0.0069829    -0.0151386  -0.000276651   -0.00971413  -0.000610674   -0.00029539  1.14341e-005  -0.000709617
    -0.470674      0.295465     -0.264702     0.0219166   -0.00701098    -0.0154679   -0.00126092   -0.00985262   0.000196547  -0.000195291  -0.000132547  -0.000148628
    -0.473577      0.293687     -0.272371     0.0219815   -0.00818158    -0.0174987   -0.00102956   -0.00866016   0.000365459   0.000446633  -0.000377089    0.00019124
    -0.478461      0.257464     -0.267751     0.0411777   -0.00703216    -0.0152161   -0.00174044   -0.00959636   0.000373054   0.000555458  -0.000202599  -0.000299597
    -0.475537      0.252567     -0.265293     0.0450904   -0.00612308    -0.0124673   0.000247542   -0.00999929   0.000299399  -0.000505249   0.000425981   -0.00059829
    -0.463691       0.30033     -0.263235      0.018345   -0.00915725    -0.0166124    0.00303393    -0.0099689 -4.93255e-005   -0.00041751  -0.000270549  -0.000541229
    -0.460326      0.318925     -0.264546     0.0085008   -0.00968328    -0.0206878     0.0023917    -0.0104826  -0.000634914   0.000268861   0.000573379  -0.000114615
    -0.463761      0.323732     -0.270957    0.00723474   -0.00902638    -0.0196923    0.00269668   -0.00806803  -0.000442732   0.000238866  -0.000406301   0.000119652
    -0.457714      0.324711      -0.27868    0.00277145     -0.010533    -0.0208695    0.00474474   -0.00829998  -0.000435548   0.000238356  -0.000404337   0.000116523
    -0.460097      0.316591     -0.279879    0.00572122   -0.00951798    -0.0199961     0.0046954    -0.0079453    0.00047696   0.000130551   0.000176601  -0.000269932
    -0.461465      0.301877     -0.275902     0.0143531     -0.010745    -0.0209745    0.00524088   -0.00705352  -0.000162822   0.000673738  7.56182e-005  -0.000488407
    -0.451877      0.287914     -0.260923      0.022336    -0.0133071    -0.0191122    0.00130277   -0.00880003   0.000379976   0.000552727  -0.000207252  -0.000306776
    -0.448953      0.284833       -0.2589     0.0251778    -0.0143194    -0.0181434  -0.000448741   -0.00811618   0.000115238   0.000330258  -0.000348624  -0.000691889
    -0.450061      0.286899     -0.263244     0.0220855    -0.0138535    -0.0177353    0.00139295   -0.00699568 -9.20203e-005   0.000149621   0.000284431  5.88912e-005
    -0.448526      0.288056      -0.24923     0.0209693    -0.0113944    -0.0153279    0.00338774   -0.00828479   -0.00070067  2.06504e-005  -0.000547542  -0.000262481
    -0.437849      0.272828     -0.225526     0.0308923    -0.0128143    -0.0124393    0.00330908   -0.00883432   0.000204584  -0.000190284  -0.000139475  -0.000149356
    -0.440457      0.273579     -0.231393     0.0298387    -0.0179598    -0.0130752    0.00543276   -0.00956752  -0.000400384  -0.000321106  -0.000968936  -0.000474325
    -0.440154      0.271012     -0.221215     0.0314016    -0.0135819     -0.011664    0.00453525    -0.0110945  -0.000429589   0.000352507  -0.000236086  -0.000363823
    -0.451363      0.282337     -0.233775     0.0258212   -0.00641353    -0.0116472    0.00252283   -0.00993474  -0.000730944   0.000695562   0.000184658  -0.000149722
    -0.499305      0.343325     -0.333973   -0.00740451   -0.00601965    -0.0238334    0.00586303   -0.00325961   0.000468702  2.05301e-005  5.82683e-006   0.000212435
    -0.502041       0.33893     -0.341087   -0.00800992    -0.0027363    -0.0229582    0.00482006   -0.00460948  -0.000173111   0.000562425 -9.12387e-005 -1.26844e-006
    -0.452332      0.272523     -0.247087     0.0239634  -0.000834423    -0.0141616  -0.000854861   -0.00871959   -0.00035818 -7.11481e-005   0.000145674   -0.00032104
    -0.431505      0.255021     -0.226204     0.0310935   -0.00606727     -0.013919   -0.00266041    -0.0104301 -6.71963e-005   -0.00041456  -0.000276569  -0.000529822
    -0.460914      0.274739     -0.296386     0.0137466   -0.00385426    -0.0192154    0.00346907   -0.00876806  -0.000332894  3.10993e-005   0.000326086  -0.000827228
    -0.469141      0.277792      -0.30612     0.0127093   -0.00113791    -0.0182728    0.00473857   -0.00685583  -0.000429907   0.000346016  -0.000229512  -0.000379172
    -0.454635      0.270232     -0.276394     0.0199808   -0.00496236    -0.0156459    0.00302595     -0.009253   0.000383948   0.000554243  -0.000203498  -0.000306062
    -0.448285      0.258124     -0.264166     0.0224213   -0.00329642    -0.0142333    0.00402543   -0.00891259  -0.000432174   0.000349869    -0.0002328  -0.000370211
    -0.448693      0.259644     -0.265433     0.0253199   -0.00240869    -0.0119867    0.00505607   -0.00889206 -8.18975e-005   0.000153769   0.000290184  6.15826e-005
      -0.4454      0.251322     -0.275157     0.0238507   -0.00342401    -0.0156006    0.00739994   -0.00887456  -0.000427666   0.000244989  -0.000399609   0.000120031
    -0.448098      0.252921     -0.289968     0.0200249   -0.00485734    -0.0184888    0.00900067    -0.0064463  -0.000418297   0.000349029  -0.000230451  -0.000382794
    -0.464727      0.277224     -0.317288     0.0150819   -0.00471824    -0.0190522     0.0115958   -0.00616143 -4.08658e-005  -0.000627921   -0.00060581   0.000431908
    -0.461667      0.262148      -0.30691     0.0131784    0.00198354     -0.020179     0.0113509   -0.00693646    0.00014101   0.000225923  -0.000508297  -0.000215031
    -0.453348      0.247553     -0.297834     0.0203462    0.00841876    -0.0150063     0.0122711   -0.00680174   0.000140091   0.000229493  -0.000509207  -0.000211578
    -0.432083      0.230989     -0.289333    0.00678256      0.020017    -0.0131314     0.0134519   -0.00684321  -0.000322631 -6.78837e-005   0.000153929  -0.000339942
     -0.43595      0.228058      -0.28482    0.00975789     0.0111934     -0.018293    0.00888203   -0.00844783 -6.32678e-005   0.000257334    0.00046528  -0.000444783
    -0.445972      0.226284     -0.303476     0.0225498    0.00130389      -0.01896    0.00888224   -0.00696651 -6.80792e-005    0.00015208   0.000296534  4.82765e-005
    -0.412454      0.196018     -0.331321    0.00641925   -0.00402008     -0.028587     0.0117447   -0.00551248   0.000299304  5.60211e-005   0.000991851 -2.85802e-005
    -0.412389      0.201704     -0.333059    0.00627451   -0.00425285    -0.0281239     0.0119647   -0.00433093   0.000228401  -0.000302038  -0.000295816   0.000315048
    -0.435631      0.219219     -0.305292     0.0134031    0.00911797    -0.0184876     0.0112544   -0.00699754  -0.000321872 -7.02457e-005   0.000157727  -0.000341555
    -0.448502      0.230133     -0.272269     0.0195477     0.0205185     -0.012045    0.00592136   -0.00831351 -7.63297e-005   0.000260085   0.000462743  -0.000436818
     -0.47034      0.245521     -0.236923     0.0271668     0.0340655   -0.00105193    0.00388136     -0.010547   0.000204783 -7.97838e-005  3.80285e-005  -0.000637451
    -0.476457      0.244286       -0.2453     0.0261968     0.0346702   0.000683538    0.00595321    -0.0100346   0.000209148 -7.89814e-005  3.87117e-005  -0.000639161
    -0.462667      0.225047      -0.27406     0.0219926     0.0276569   -0.00612768    0.00798965    -0.0091788  -0.000338021 -6.50785e-005   0.000155308  -0.000325528
    -0.460251       0.21388     -0.279466     0.0207971     0.0293952   -0.00718905     0.0080891    -0.0108821   0.000314337  -0.000502024   0.000431098  -0.000603512
    -0.465968      0.214793     -0.281815     0.0198357     0.0298406   -0.00619333    0.00917319    -0.0102975   0.000135979   0.000338531  -0.000336114  -0.000692475
    -0.461628      0.220338     -0.279717     0.0189979     0.0259917   -0.00791974    0.00762489    -0.0108975  -0.000620452   0.000383831   0.000751782  -0.000605503
    -0.455559      0.220453     -0.278435     0.0199237     0.0225728   -0.00795642    0.00535722   -0.00946265    0.00012541    0.00033666  -0.000340155  -0.000690166
    -0.460519       0.21549     -0.269786     0.0224124     0.0265035   -0.00382012    0.00746242    -0.0104771  -0.000338439 -6.41908e-005   0.000156119  -0.000321016
    -0.462554      0.215988     -0.258716     0.0221196     0.0311201   -0.00251365    0.00674206    -0.0103753   0.000501185  -0.000530155  -0.000550797  -0.000361057
    -0.450134      0.216945     -0.262748     0.0194152     0.0275682   -0.00534617    0.00348238   -0.00926173  3.06914e-005  -0.000830558   0.000112305  -0.000489825
    -0.433854      0.210756     -0.270099      0.018705     0.0218744    -0.0104043      0.001871   -0.00683293   0.000201427 -8.46978e-005   3.5466e-005  -0.000646772
    -0.430962       0.21011     -0.269143      0.016103     0.0230501    -0.0100361    0.00191293    -0.0069501   0.000201029 -8.47366e-005  3.50655e-005  -0.000646375
    -0.433951      0.212662     -0.264056     0.0156736     0.0289923   -0.00672826   0.000678045   -0.00835005   0.000579858  -0.000848533 -2.55124e-006  -0.000811683
    -0.433272      0.208735     -0.269189     0.0126446     0.0329672   -0.00799699    0.00447117   -0.00968422   0.000203632  -0.000188768   -0.00012938  -0.000149707
    -0.436971      0.212654     -0.271629    0.00902943     0.0336961   -0.00705745    0.00490284   -0.00910339  -0.000341596  3.85171e-005   0.000322615  -0.000818342
    -0.455917      0.220028     -0.280104    0.00892844     0.0371714   -0.00578779    0.00362478   -0.00821248 -6.15194e-005  -0.000411967  -0.000270659  -0.000536964
    -0.457822      0.226214     -0.284695    0.00756767     0.0387395   -0.00644241    0.00109326   -0.00696289 -8.29898e-006  -0.000160588   0.000841713  -0.000386247
    -0.453294      0.221694     -0.286759    0.00825797     0.0320634   -0.00801366    0.00156093   -0.00834082   -0.00032307  -0.000636452   -0.00040924  -0.000923688
    -0.453251      0.220276      -0.29014    0.00383979     0.0325695      -0.00767    0.00283739   -0.00766551  -0.000341959   0.000141684   0.000491988   -0.00131452
    -0.432767      0.213507     -0.264579    0.00926762     0.0354536   -0.00255081   -0.00165627   -0.00760631  -0.000896605  -0.000617848  -0.000304886  -0.000592728
    -0.429015      0.195923     -0.252867     0.0167172     0.0314757   -0.00635473  -0.000827989   -0.00786932  -0.000109051   0.000156026   0.000283982  7.11212e-005
    -0.425914      0.191724     -0.253152     0.0168386     0.0323072   -0.00678851   -0.00120466   -0.00875146  -0.000631935  -0.000394864  -0.000163091  -0.000207022
     -0.41591      0.185966     -0.238016     0.0191588     0.0396802   -0.00309249   -0.00218636   -0.00818992   0.000170203  -0.000292071  -0.000310648   0.000356754
    -0.416588      0.184393     -0.233475     0.0184332     0.0425679    -0.0024231   -0.00144232   -0.00857861   -0.00012112  5.32104e-005   0.000111431   0.000571563
    -0.418452      0.190532     -0.244667     0.0139827     0.0416819   -0.00281688   -0.00152287   -0.00566335 -3.62891e-005  -0.000367956   0.000490103   0.000611459
    -0.416824      0.196254     -0.249396     0.0126038     0.0405422   -0.00435341   -0.00167728   -0.00421698   0.000268508  -0.000502717   0.000407672   -0.00059693
    -0.412973      0.201131     -0.249751     0.0119955      0.040913   -0.00605368   -0.00364716   -0.00454259 -7.74332e-006  -0.000937482 -7.24839e-005  7.44846e-006
    -0.414364      0.202201     -0.251184    0.00788617     0.0432727   -0.00444493   -0.00244763   -0.00431288   -0.00012384   0.000155778    0.00027521  6.96165e-005
    -0.417423      0.204561     -0.250981    0.00845389     0.0436497   -0.00420021  -0.000969015   -0.00483122  9.10511e-005   0.000337129  -0.000357522  -0.000685202
    -0.421078      0.203448     -0.252642    0.00819764     0.0419567   -0.00740678   0.000559737   -0.00380429 -2.47419e-005  -0.000264469   0.000659703   0.000107183
    -0.418213      0.201123      -0.25287    0.00281533     0.0458462   -0.00300983 -7.92334e-005   -0.00601436  -0.000374125 -6.62768e-005   0.000139549  -0.000317324
    -0.418954      0.205293     -0.255012    0.00573634     0.0452859   -0.00264269  -0.000861346   -0.00637006  9.31915e-005   0.000337249  -0.000354553  -0.000682578
    -0.417083      0.205195       -0.2497    0.00601817     0.0431676   -0.00252533   -0.00150053   -0.00342753 -8.29634e-005  -0.000305474  -0.000117594   -0.00102803
     -0.41893      0.210136     -0.256081   0.000691421      0.044834   -0.00244468   -0.00235228   -0.00186617  -0.000102529  -0.000517332  -0.000462093 -3.84719e-005
    -0.424324      0.217064     -0.259641   -0.00244536     0.0496168   -0.00535846    -0.0015464    0.00045874  -0.000131413   0.000154334   0.000266776  6.13747e-005
    -0.422113      0.210444     -0.255388    0.00282679     0.0490951   -0.00115385   -0.00228648  -0.000245103   0.000158906  -0.000188398  -0.000155017  -0.000147708
    -0.423941      0.206549     -0.254624     0.0030625     0.0491876   -0.00295897    -0.0015605   -0.00177602   -0.00065191  -0.000394783  -0.000178398  -0.000212804
    -0.431136      0.210812     -0.253676    0.00017419     0.0545015   -0.00282378   -0.00144501  -0.000423023   0.000460988  -0.000428017  -0.000405199  -0.000860218
    -0.430896      0.210983     -0.253667    0.00449051      0.054396   -0.00106409   -0.00124397   -0.00134219   0.000721353  -0.000204281  -0.000263888  -0.000470657
    -0.428495      0.208504     -0.248522     0.0036783     0.0512781   -0.00105371   -0.00115706   -0.00205714   0.000422943  3.49906e-005 -1.27507e-005   0.000240613
    -0.427958        0.2076      -0.24506    0.00613911     0.0497742   -0.00123867   -0.00253968  -0.000774928   0.000416969  3.48753e-005 -1.60693e-005   0.000240792
    -0.430208      0.199285     -0.250304    0.00921363      0.049102  -0.000834572   -0.00262447   0.000962036   0.000252573  -0.000502039   0.000396626  -0.000599483
    -0.434081      0.202462     -0.254564    0.00692629     0.0510151  -0.000522227   -0.00188811    0.00117981  -0.000108249  -0.000515563  -0.000466807 -4.10757e-005
    -0.434161      0.211447      -0.25311    0.00197942     0.0526168   -0.00114447  -0.000726476    0.00056655  -0.000132123   0.000156728   0.000265682  6.40777e-005
    -0.442067      0.212757     -0.260172    -0.0024702     0.0558096     0.0015689    -0.0013022  -0.000727152 -9.18336e-005  -0.000305185  -0.000122334   -0.00102941
    -0.445819      0.217249     -0.260697  -0.000846911     0.0556231   0.000627378   -0.00231803   -0.00146963   0.000541692  -0.000953228  -0.000190783  -0.000316438
    -0.448904      0.218151      -0.26189   -0.00124488     0.0555091   0.000154387   -0.00169966  -0.000549625   0.000459031  -0.000427821  -0.000404628  -0.000857913
    -0.442892      0.213749     -0.259674   -0.00272785     0.0559399   -0.00161761   -0.00213764  -0.000178511    0.00015792  -0.000189205  -0.000154507  -0.000149165
    -0.436653      0.217045     -0.259567   -0.00515651     0.0553439   -0.00298016   -0.00173416    0.00110414   0.000164101 -8.43668e-005  1.37008e-005  -0.000647576
    -0.440165      0.222693     -0.258999  9.82352e-007     0.0515298   -0.00195264   -0.00224431    0.00273343    0.00024991  -0.000503956   0.000393738  -0.000603917
    -0.421946      0.216641     -0.243469     0.0025013     0.0454328   -0.00440062   -0.00400958   0.000973637   0.000152794  -0.000189846  -0.000159726  -0.000149311
    -0.416757      0.204555     -0.233515    0.00626999     0.0514495   -0.00324043   -0.00572985   0.000526496   0.000147215  -0.000188767  -0.000160257  -0.000145752
    -0.422164      0.189604     -0.238386     0.0100796     0.0581919   -0.00145856    -0.0057124   0.000812836   0.000404343    3.525e-005 -1.98849e-005   0.000242283
    -0.424854       0.19539     -0.248859    0.00272455     0.0587763    -0.0018677   -0.00592556    0.00201809 -2.54538e-005  -0.000831574  8.33108e-005  -0.000490429
    -0.433788      0.200947     -0.257391    0.00470121     0.0597477   -0.00300121   -0.00458094    0.00249688  -0.000111031  -0.000411656  -0.000297981  -0.000537934
    -0.418274      0.198257     -0.248786    -0.0102189     0.0602194    -0.0041744   -0.00683036  -0.000210336  -0.000407122 -6.92135e-005   0.000124211  -0.000318285
    -0.413966      0.199385     -0.246449    -0.0103686     0.0522431   -0.00257782   -0.00366581   -0.00281643 -9.36844e-005  -0.000307287  -0.000122386   -0.00102669
    -0.434986        0.2004     -0.259455    0.00886956     0.0465088   -0.00131081    0.00191029    -0.0026381  -8.1862e-005   -0.00040941  -0.000286177  -0.000536809
    -0.435643      0.198506     -0.261585    0.00266403     0.0500938   -0.00020123     0.0016581   -0.00222239 -2.10386e-006  -0.000935175 -7.52852e-005  2.98864e-006
      -0.4377      0.198538     -0.266398   -0.00226093      0.055081    0.00209016    0.00235419   -0.00237413  -0.000287941  -0.000484675   0.000517618  -0.000277004
    -0.440496      0.202269     -0.261036   -0.00527099     0.0595556    0.00291524  -0.000188861   -0.00308777  -9.2598e-005  -0.000409846  -0.000288353  -0.000531482
     -0.43388      0.196539     -0.266171   -0.00648127     0.0625371    0.00163588   -0.00235292   -0.00287882  -0.000363557  -0.000738988  -0.000598062  -0.000422665
    -0.435831      0.183642      -0.26435   -0.00372067     0.0748303    0.00100894   -0.00515079  8.12441e-005   0.000145938  -0.000188127  -0.000154273   -0.00014493
     -0.43234      0.168332     -0.244163   0.000386529     0.0876937    0.00497884   -0.00997334  -0.000163384  -0.000430171  -0.000169852 -4.62214e-005   0.000186809
    -0.433201      0.162142     -0.248862  -0.000731268     0.0990391     0.0053351     -0.012889    0.00216573  7.98357e-005   0.000380498   0.000398782   0.000465884
    -0.431207      0.166472     -0.242281   -0.00281328      0.105233     0.0059764    -0.0155743    0.00286784  -0.000447782 -6.52843e-005   0.000117059   -0.00030635
    -0.413385       0.15489     -0.248422   -0.00404761       0.09676    0.00251717    -0.0170724    0.00347754  -0.000366553  -0.000592575   0.000328689    0.00023173
    -0.420671      0.160495     -0.261385   -0.00589199     0.0988421    0.00158768    -0.0130451    0.00342566   -0.00043705 -6.68744e-005   0.000120322  -0.000313541
    -0.429869      0.168562     -0.260995   -0.00540021      0.101707    0.00465133   -0.00977919    0.00270308   -0.00044256  -0.000275844  -0.000218856   0.000676699
     -0.42589      0.170983     -0.262161   -0.00426083     0.0993504    0.00204119    -0.0106491    0.00352537  -0.000172273   0.000156582   0.000260623  7.10713e-005
    -0.396534      0.160236     -0.275779   -0.00521262     0.0884624   -0.00722224    -0.0104157    0.00447163  -0.000165391   0.000153255   0.000262558  6.25139e-005
    -0.356216      0.137514     -0.304051   -0.00939362     0.0754034    -0.0195239    -0.0105178    0.00670719  -0.000513959   0.000240304  -0.000428634   0.000114385
    -0.401333      0.186454     -0.253743     0.0073107     0.0953293   -0.00110633    -0.0134856    0.00322632  -0.000351779  -0.000592164   0.000334805   0.000224023
    -0.421255      0.219344     -0.212065     0.0206518      0.101734     0.0121171    -0.0159069  -0.000614195  -0.000144942  -0.000300357  -0.000130208   -0.00100685
    -0.386935      0.202098     -0.233889     0.0166707     0.0845433  -0.000106606    -0.0138083    0.00178728  -0.000174172   0.000157214    0.00026089  7.60981e-005
    -0.383736      0.199398     -0.245764      0.017436     0.0768762   -0.00432459    -0.0124526    0.00305478  -0.000440533  -0.000277717  -0.000218941   0.000673305
    -0.382402      0.202809     -0.251763     0.0228661     0.0704602   -0.00861321    -0.0123881   0.000266716   0.000217371   -0.00071563  6.03993e-005   0.000394006
    -0.396077      0.204665     -0.244764     0.0311042     0.0687213   -0.00999774    -0.0137406  -0.000677298  -0.000159256   0.000154533    0.00027153  7.08961e-005
    -0.408393      0.204092     -0.245745     0.0337477     0.0635649    -0.0115822    -0.0146635    0.00140835   0.000121933  -0.000296328  -0.000324908   0.000349352
     -0.42631      0.212414     -0.238515      0.037866     0.0558425    -0.0137662    -0.0154617    0.00209525   0.000685179   -0.00020834   -0.00026864  -0.000469867
    -0.457405      0.228933     -0.237221      0.045736     0.0468044    -0.0176144    -0.0179793    0.00212263    0.00021323  -0.000613878   0.000226954  -0.000103636
    -0.486922      0.266142     -0.265441     0.0480436     0.0323922    -0.0269027     -0.019353    0.00387931  -0.000222932 -1.90995e-006  -0.000676057  -0.000588257
    -0.490506      0.291411     -0.259486     0.0594844     0.0198926    -0.0356375    -0.0226476    0.00547598    -0.0001658   0.000247458    0.00043675  -0.000443022
    -0.482318      0.301616     -0.241638     0.0772707     0.0159304     -0.038945    -0.0267946    0.00388791   0.000107807  -0.000308155  -0.000324189   0.000337247
    -0.485335      0.313759      -0.24871     0.0907192     0.0073186    -0.0438559    -0.0244999    0.00256678  -0.000135613  -0.000531096  -0.000455449 -5.53166e-005
    -0.462294      0.325821     -0.230726     0.0952772   -0.00355564    -0.0499643    -0.0256164    0.00336241   0.000687183   -0.00022122  -0.000261366  -0.000489643
    -0.452269      0.353344     -0.242761     0.0981451    -0.0107062    -0.0549611    -0.0237457    0.00415154  -0.000327815    0.00108374  -0.000320654  -0.000543375
    -0.409101      0.353077     -0.222202      0.102522   -0.00429177    -0.0577226    -0.0224323    0.00301978   0.000150697 -9.98007e-005  2.55594e-005  -0.000672238
    -0.355537      0.362863     -0.205355     0.0997357  -0.000740461    -0.0612623    -0.0193545    0.00264008  -0.000111842  -0.000532881  -0.000454933 -7.43077e-005
    -0.325768      0.367458     -0.196242       0.10773    0.00332159     -0.058669    -0.0171732    0.00148833   -0.00065605  -0.000407982  -0.000169371  -0.000245931
    -0.248713      0.319099    -0.0655934      0.151626     0.0128606    -0.0430968    -0.0241018   -0.00386066   4.7083e-005    0.00023173  -0.000535997  -0.000192687
    -0.148033      0.251173     0.0580685      0.198205     0.0301934    -0.0289122    -0.0277985   -0.00834602  -0.000611709  -0.000904916  2.48918e-005   0.000352458
   -0.0510285       0.31788    -0.0605101      0.157649     0.0378882    -0.0513259     -0.010738   -0.00639723   0.000659579    0.00032548  -0.000461115   -0.00103082
     0.013452      0.466695     -0.309738     0.0760269     0.0315539    -0.0877231     0.0190202    0.00256036   0.000283873   -0.00020501  -0.000103185  -0.000255042
     0.159113      0.468508     -0.239684     0.0979301      0.053119    -0.0763259     0.0217757   0.000391579   0.000258229   0.000478738   0.000625043  -0.000138032
     0.304863      0.426291     -0.155764      0.133582     0.0860559     -0.060335     0.0204586   -0.00130341  -0.000285835  -0.000162998 -5.29346e-007  9.71079e-005
     0.432718      0.400441     -0.159524      0.158054      0.112476    -0.0531481     0.0232495  -0.000860253   0.000543712   0.000156825   0.000204021  -0.000332717
      0.63403      0.440946     -0.128162      0.175814      0.122197    -0.0546222     0.0242457   -0.00257725  -0.000354333   0.000374817  -0.000202662  -0.000441831
     0.834269      0.519388     -0.182411      0.149554      0.150017    -0.0637337     0.0319245    0.00323649   0.000303631  -0.000170901 -9.94217e-005  -0.000253648
      1.13751      0.551584     -0.142877      0.127596      0.203874    -0.0604618     0.0388477    0.00351344   0.000312631  -0.000164781  -0.000102619  -0.000261196
      1.50691      0.582328    -0.0574592      0.116428      0.247108    -0.0564958     0.0403641   0.000186704 -4.27064e-005 -6.53655e-005  -0.000801388  -0.000191164
      1.85625      0.605128    0.00290336     0.0986464      0.296393    -0.0525991      0.040347    0.00044143    0.00077014   0.000251926  -0.000613108  -0.000619881
      2.15372      0.641028     0.0270231     0.0706688      0.323874    -0.0617495     0.0409189   0.000632745   0.000100486  -0.000228977   0.000683803 -4.49511e-006
      2.42426      0.678421     0.0309794     0.0868317      0.319529    -0.0655589     0.0405453   -0.00320763  -0.000232667 -2.96289e-005   0.000172403  -0.000434232
      2.73022      0.685368     0.0956562      0.103332      0.325214    -0.0611689     0.0386331   -0.00716464  2.61573e-005    0.00020035   0.000310099 -3.39894e-005
      3.00445      0.671337      0.153963      0.089371      0.352473     -0.058643     0.0355966   -0.00594552  -0.000229658  -0.000796525  -0.000745244  -2.6835e-005
      3.25674      0.656565      0.159562     0.0692007      0.387394    -0.0473947     0.0358601   -0.00348429   2.2635e-005  -0.000462879  -0.000443961  -0.000129771
      3.53272      0.645025      0.176557     0.0454434      0.414047    -0.0392124     0.0356843   -0.00262544 -2.16413e-005   0.000108664   0.000108686   0.000478125
       3.8215      0.657509      0.220694     0.0234477      0.431209    -0.0377631     0.0313284   -0.00157288   0.000217501   0.000332489   0.000233928   0.000871327
      4.04705      0.711849      0.241329    0.00232466      0.437767     -0.038483     0.0241317  -0.000668968   0.000486993 -1.49702e-005  -0.000198847   0.000662627
      4.21798      0.786712      0.218646 -8.83576e-005      0.423217    -0.0408423     0.0169134    0.00240725   0.000482304   0.000191529   0.000136711  -0.000327073
      4.37114      0.851493      0.222757     0.0191955      0.379002    -0.0400621     0.0118222    0.00251498   0.000477262   0.000190797   0.000132615  -0.000318695
      4.47866      0.921283      0.205974     0.0368394      0.326692    -0.0431903    0.00612206    0.00317375  -0.000174554   0.000623644  -0.000140483 -3.52855e-005
      4.56968       1.00482      0.172709     0.0345155      0.282697     -0.049674    0.00385956    0.00629288    0.00046021 -3.03339e-005  -0.000214947   0.000670455
      4.63295        1.0602      0.136143     0.0501715      0.240721    -0.0479654    0.00493635    0.00535934   0.000117636  -0.000538442     0.0011824  -0.000403425
      4.67839       1.06779      0.072972      0.100731      0.190101    -0.0377936    0.00797177    0.00508306  -0.000597162   0.000324085   0.000542061  -0.000162045
      4.72211        1.0493     0.0335392      0.159738      0.139456    -0.0182445    0.00842243    0.00364063    5.597e-005  -0.000207819   0.000652558   7.4771e-005
      4.78456       1.05783    -0.0557636      0.176829      0.109382    -0.0076111     0.0112327    0.00353461   0.000827986  -0.000251929  -0.000421155 -6.54117e-006
      4.80936       1.11056     -0.155814      0.210228     0.0623229  1.03213e-007    0.00569694    0.00705593   -0.00028103 -9.34487e-006   0.000152015  -0.000345504
      4.79458       1.13476     -0.247686      0.264333   -0.00125215     0.0107872    0.00471394    0.00922427   -0.00056334   0.000338309    0.00058566  -0.000123049
      4.79579       1.13455     -0.369001      0.291141    -0.0608229     0.0234898     0.0138655      0.008911   0.000580709  9.78657e-005  4.07226e-005   0.000223017
      4.78764       1.12369     -0.450304      0.341179     -0.121971     0.0420701     0.0174489    0.00604562  4.94634e-005   0.000121889   0.000171458   0.000562128
      4.77691       1.12656     -0.496254      0.374912      -0.17705      0.057695     0.0108329    0.00709534   -0.00051552   0.000246718   0.000453273   0.000410831
      4.73398       1.18705     -0.554898      0.352318     -0.224766     0.0566046    0.00751343    0.00621991  -0.000125854   -0.00042161   0.000586708  -0.000251629
      4.72595       1.23022     -0.611028      0.291364     -0.263646     0.0472392    0.00881074    0.00409904   0.000614791   0.000191243   0.000231689  -0.000237653
       4.7634        1.2192     -0.626821      0.230198     -0.283729     0.0474298    0.00740698    0.00329651   0.000601445  7.81427e-005  5.05311e-005   0.000262358
      4.76182       1.18163     -0.640195      0.163948     -0.288143     0.0473291     0.0021717    0.00196717 -2.45228e-005  4.42566e-005   -0.00062162  -0.000547613
      4.70812       1.11653     -0.642367     0.0898412     -0.277998     0.0424067   -0.00721841    0.00371761    0.00010954   -0.00091245 -4.47885e-005  4.10295e-005
      4.63714       1.02232     -0.638318      0.015168     -0.267837     0.0381412    -0.0108523     0.0030722    0.00035554  -0.000593076   0.000251524 -6.36607e-005
      4.57924      0.966652     -0.645745    -0.0760101     -0.268954     0.0312144    -0.0103559    0.00120546   0.000234276    0.00048818   0.000588926 -3.36672e-006
      4.50774      0.897081      -0.64916     -0.159976     -0.270977     0.0273338   -0.00742016   -0.00170188  6.25788e-005   -0.00026886   0.000654011    0.00014798
      4.42438      0.717129     -0.632435     -0.240132     -0.250108     0.0252761   -0.00361683   -0.00507837  9.50759e-006  -0.000420194  -0.000298397  -0.000495626
      4.31414      0.470011     -0.601782     -0.296279     -0.212525     0.0312973   -0.00241949   -0.00888843  -0.000681735   0.000586201 -1.55672e-005   0.000398062
      4.15035      0.279277      -0.58259     -0.346222     -0.186124     0.0257016   0.000634014    -0.0105009   0.000259982  -0.000197415   -0.00017118 -9.79166e-005
      3.92966     0.0675244     -0.582113      -0.36627     -0.162613     0.0102811    0.00481867   -0.00882851  -0.000575796   0.000266594   0.000533936 -7.23899e-005
      3.71403     -0.244417     -0.587347     -0.347403     -0.130051    0.00224826     0.0111927     -0.006627   0.000373123  -0.000613381   0.000220197 -8.22692e-005
      3.56061     -0.489267     -0.545923     -0.367667    -0.0837597    -0.0194473     0.0123466   -0.00529812  -0.000645115   0.000796673   0.000326098  -0.000640769
      3.39231     -0.729259      -0.54333     -0.333015    -0.0499816    -0.0208192     0.0179198   -0.00572452   0.000759274   0.000112195  -0.000819282 -1.86531e-005
      3.20511      -0.99807     -0.575773     -0.255769    -0.0316097   -0.00986889     0.0231912   -0.00593449   0.000664703  -0.000366661   0.000390108   0.000290277
      3.04914      -1.22715      -0.59125     -0.200062    -0.0152715    -0.0103276     0.0235548   -0.00502239  -0.000412209  -0.000891661  6.61596e-005   0.000334798
       2.9014      -1.44827     -0.608738     -0.141551    0.00114254    -0.0045633     0.0251981   -0.00498438   0.000887305  -0.000164907  -0.000217008  -0.000457014
      2.77204      -1.60545     -0.604528     -0.107774     0.0155891   -0.00514318     0.0246389   -0.00299328  -0.000484642  -0.000243116  4.14279e-005  -0.000694104
      2.66045      -1.71564     -0.606809    -0.0820497     0.0184778   -0.00635157     0.0252586   -0.00071666  -0.000484576  -0.000239306  4.27819e-005  -0.000696427
      2.54219      -1.81504     -0.621793    -0.0425472     0.0219286   -0.00343227     0.0247104   0.000333704  -0.000226399 -1.10418e-005   0.000189007  -0.000306353
      2.41324      -1.86543     -0.625309    -0.0137722     0.0280066   -0.00234827     0.0239685  -0.000870384  -0.000232105  -0.000113285  2.66066e-005   0.000192099
      2.30411       -1.8859     -0.612943   0.000449118     0.0352732   -0.00376368     0.0198972    0.00101816   0.000310127  -0.000129832 -8.91665e-005  -0.000129491
      2.20112      -1.89598     -0.602012     0.0147835     0.0471312   -0.00188744     0.0157977    0.00309421 -1.29982e-006   0.000215867   0.000328436  8.81636e-005
      2.08515      -1.88869     -0.590145     0.0239788     0.0566919  -0.000963639     0.0163165    0.00195215   0.000284793  -0.000233202  -0.000261294   0.000369612
       1.9801      -1.89697     -0.591198     0.0301811     0.0625241   -0.00360907     0.0173544    0.00438157   0.000548394  9.45105e-005  4.68352e-005   0.000254782
