    -0.245689    -0.0569403      0.159073    -0.0626707    -0.0297234    0.00341902   -0.00353977    0.00168789  9.21081e-005  6.82932e-005   0.000540823   0.000240332
    -0.243412    -0.0586297      0.153273    -0.0657596    -0.0334315   0.000925294   -0.00246653   0.000158368   0.000401459  -0.000338197   0.000317862   0.000150769
    -0.241612    -0.0613981      0.146079    -0.0685314    -0.0338632    0.00217402   -0.00231182 -3.56031e-005   0.000348138   0.000106249  -0.000488903  9.23544e-005
    -0.234696    -0.0644408      0.147263    -0.0683049    -0.0358034    0.00276801   0.000270381  -0.000822547  -0.000375133  -0.000679683   0.000233639  -0.000529265
    -0.231313    -0.0709324      0.143454    -0.0663941    -0.0378173    0.00160099   0.000283419   0.000649352   0.000776819   0.000342408    -0.0001856  -0.000171789
    -0.232275    -0.0716511      0.140609    -0.0684377    -0.0369153   0.000743329  -0.000653105    0.00105662  -0.000147626  -0.000131126  -0.000786831   0.000335503
    -0.224325    -0.0603306      0.149982    -0.0703791    -0.0349143   0.000611421   0.000614528   0.000773197   0.000390546   0.000687852  -0.000204227   0.000521532
    -0.217271    -0.0523352      0.155045     -0.069005    -0.0318883    0.00249781    0.00152748   0.000556594  -0.000501318    0.00105949  -0.000447755  7.96081e-005
    -0.210319    -0.0545266      0.154967    -0.0689109    -0.0342617    0.00302785   0.000402742   0.000309114   0.000330377   9.7702e-005  -0.000487407  9.76757e-005
    -0.210512    -0.0574104      0.148075    -0.0650778    -0.0365375    0.00105486  -0.000651904   0.000823966   -0.00050993  -0.000309394  -0.000836717   1.9457e-006
    -0.215746    -0.0637153      0.138788    -0.0609653    -0.0357209  7.20492e-005    -0.0014451    0.00243961  5.72496e-005  -0.000270977  -0.000365843   0.000527876
    -0.212217    -0.0644194      0.137806     -0.060375     -0.035388   0.000605238   0.000179283    0.00130804   0.000304685   0.000103777  -0.000487608  7.83489e-005
    -0.204718    -0.0496294      0.142381    -0.0649941    -0.0301206    0.00107925    0.00107487  5.31908e-005   0.000425202    0.00016302  -0.000239758  -0.000500508
    -0.194972    -0.0499146      0.139189    -0.0672406    -0.0303776   0.000138912  -0.000475687    0.00121091   0.000439763    0.00015856  -0.000251017  -0.000505147
    -0.183924    -0.0452608      0.134868    -0.0707957    -0.0325656   -0.00019506   0.000754876  -0.000581478  -0.000702256  -8.6631e-005  -0.000410221   0.000894935
    -0.173293    -0.0309646       0.14153    -0.0753828    -0.0296728    0.00149744    0.00208441   0.000125324  -0.000502089  2.55445e-005  7.51976e-005  -0.000286543
    -0.166146    -0.0243064      0.141457    -0.0787148    -0.0271164   0.000580512   0.000549225  6.95995e-005   0.000160678   0.000566696 -1.51826e-005  -0.000394523
     -0.15903    -0.0130601      0.143557     -0.079262    -0.0259442   0.000899323   0.000849463   -0.00130974  -0.000460343  2.52444e-005  7.49315e-005  -0.000271309
    -0.149066   -0.00953481      0.143266    -0.0803995    -0.0257813   0.000629732    0.00291767   -0.00181778  -0.000265089  -0.000108738   0.000511388 -6.90073e-005
    -0.144671   -0.00832292       0.13801    -0.0804424    -0.0250333     0.0016689    0.00373216   -0.00176601  -0.000116023   0.000199175   0.000133547  7.15972e-005
    -0.141167   -0.00775728      0.136931    -0.0762589    -0.0226614   0.000951037    0.00154179    -0.0013218  -0.000615362   0.000748129 -6.79776e-005 -3.94261e-005
    -0.136376    -0.0131211      0.125989    -0.0734336    -0.0257206 -6.41802e-005    0.00219439  -0.000925099  -0.000122112   0.000203053   0.000130483  5.82997e-005
    -0.128903    -0.0170883      0.115598    -0.0739597    -0.0277955 -9.43792e-005    0.00106552   -0.00146749  8.42246e-005  7.71798e-005   0.000567491   0.000253951
    -0.121038    -0.0232791      0.106808    -0.0721348    -0.0294102   -0.00201607   0.000696539  -0.000753786   0.000240622   0.000386653   0.000185093   0.000385178
    -0.115995    -0.0221148      0.104337    -0.0669069    -0.0304685   -0.00363242   0.000985349   -0.00274374   0.000240085   0.000398203   0.000201618   0.000388193
    -0.104214    -0.0144276       0.10764    -0.0702827    -0.0278862   -0.00190072    0.00137049   -0.00168305  -0.000803574   0.000111561  -0.000587007    0.00010694
   -0.0851986    -0.0033922      0.109392    -0.0780439    -0.0269723  -0.000913054    0.00284664   -0.00132704   0.000555393 -3.66679e-005   -4.987e-005   0.000309024
   -0.0734488     0.0054061      0.111772    -0.0771962    -0.0258794   -0.00158991    0.00243052  -0.000890968   0.000241106  -0.000657091   0.000704126  2.78857e-005
   -0.0624871     0.0125963      0.112102    -0.0764856    -0.0229657   -0.00127949    0.00134091   -0.00157096   0.000423186  -0.000348549   0.000323957   0.000176195
   -0.0592187      0.020829      0.110473    -0.0754905    -0.0199099   -0.00173731   0.000188978   -0.00233738   -0.00059077   0.000752037 -6.38685e-005  -3.5392e-005
   -0.0543101      0.025935      0.106202    -0.0777408    -0.0193479   -0.00170933  -0.000131905  -0.000953216   -0.00049635  -0.000482026   0.000631938   0.000381136
   -0.0368244     0.0317871      0.109516    -0.0751797    -0.0173019  -0.000906058   0.000281472   -0.00053251  -0.000118671   0.000631653  -0.000695153  1.38503e-005
   -0.0272491     0.0346129      0.110086    -0.0712852    -0.0166965   -0.00137255    0.00155904   0.000977324   0.000109294 -3.74445e-005  -0.000312559  -0.000819508
   -0.0279612     0.0362003      0.102873      -0.06834    -0.0167316    -0.0021681   0.000770298  -0.000737082 -8.62376e-005   0.000193598   0.000119987  6.71616e-005
   -0.0235859       0.03074     0.0930989    -0.0647853     -0.018996   -0.00409863   0.000615787   -0.00077963 -9.67925e-005   0.000199942   0.000124729  5.81399e-005
  -0.00596108     0.0468163     0.0953455    -0.0721205    -0.0180653   -0.00361952    0.00201662   0.000389772   1.0835e-005 -9.58906e-005  -0.000553726  -0.000226296
  -0.00298621     0.0565533     0.0945341    -0.0725063    -0.0134645   -0.00308768    0.00184028   0.000161976  2.38158e-005 -9.85846e-005  -0.000557645  -0.000219957
   0.00351521     0.0537666     0.0874814    -0.0734727    -0.0143374   -0.00405808    0.00218087   -0.00108224   0.000190722    0.00030331 -7.64628e-005    0.00100594
    0.0260382     0.0707532     0.0921325    -0.0849255    -0.0120624   -0.00290032    0.00402278    -0.0019667  9.84725e-005   0.000492009  -0.000259219   0.000229573
    0.0318545     0.0762519      0.089138    -0.0851819   -0.00970425   -0.00110804    0.00355825  -0.000831964    0.00024354  -0.000237666  -0.000125037 -3.56388e-006
    0.0363555     0.0724685     0.0819474    -0.0798945    -0.0106757   -0.00220996     0.0026155   -0.00322333   0.000247418  -0.000220774  -0.000105844 -1.39396e-006
    0.0457425     0.0781211     0.0815149    -0.0800974    -0.0088588   -0.00348924    0.00297408   -0.00314108   0.000729033  -0.000331618  -0.000726154   5.1354e-005
    0.0525443     0.0714458     0.0737758    -0.0758363   -0.00963356   -0.00361066    0.00250397   -0.00172779   0.000548452  -0.000640287  -0.000351513  -0.000102339
    0.0563123     0.0521358     0.0616658    -0.0639228    -0.0161905   -0.00585393   0.000929492  -0.000293727  -0.000202122   0.000136877  -0.000123139   0.000647858
    0.0595659      0.047364     0.0588308    -0.0588723    -0.0165021   -0.00798932  -0.000788492   0.000985055  -0.000728497  -0.000346247   0.000196565   0.000155345
    0.0690545      0.047941     0.0567571    -0.0561333    -0.0151413    -0.0078527  -0.000253388  -0.000285009  -0.000411119   0.000619395   0.000360805   0.000136966
    0.0865538     0.0583976     0.0668008    -0.0578082    -0.0156155   -0.00822905    0.00087859   -0.00115762   0.000219716  -0.000214817  -0.000108086 -3.30903e-005
     0.100903      0.069866     0.0721547    -0.0630064    -0.0130624   -0.00638404    0.00146646   -0.00275955   0.000230447   0.000129331   0.000813158  -0.000321807
     0.106888     0.0744671     0.0632121    -0.0632388    -0.0112287   -0.00503249   0.000203943    -0.0012966   0.000234573  -0.000220076  -0.000112488 -2.18784e-005
     0.116236     0.0789434     0.0639704    -0.0658983    -0.0127674   -0.00655452   0.000513446   -0.00191793  -0.000327433  -0.000173491    0.00026065   0.000525554
     0.124853      0.080275     0.0569494    -0.0686013    -0.0131238   -0.00590909    0.00044271   -0.00165326   0.000240472  -0.000219434  -0.000109782 -1.99342e-005
     0.131846     0.0850773     0.0530873    -0.0690742    -0.0102043   -0.00648565   1.4312e-005   -0.00132387   -0.00032115  -0.000176376   0.000253728   0.000524408
     0.137933     0.0844771     0.0505453    -0.0701418    -0.0123491    -0.0069764   -0.00121457   -0.00212471   -0.00058135  -0.000282287   0.000455868  -0.000409648
     0.141723     0.0920719      0.048977    -0.0720226    -0.0112335   -0.00540845   0.000110669   -0.00228404  -0.000162226   0.000478741   0.000795803    0.00036584
     0.149964      0.100414     0.0530947    -0.0706768   -0.00706609   -0.00562939   0.000374306    -0.0027195  -0.000144232   0.000131931  -0.000120453   0.000678841
     0.166233     0.0972362     0.0568661    -0.0668686   -0.00861503   -0.00470583  -0.000511197  -0.000794306  -0.000202538   0.000909545 -2.73733e-005   0.000307769
     0.166145      0.102302     0.0527505    -0.0678646   -0.00820979   -0.00587285  -0.000818791  -0.000402836 -4.77251e-005   0.000184263   0.000111082  7.39642e-005
     0.167196      0.104204     0.0446572    -0.0683888    -0.0055101   -0.00616958  -0.000979679   -0.00173025  -0.000350809   0.000607203   0.000354882   0.000168601
     0.175407      0.103477     0.0469419    -0.0708061   -0.00604735   -0.00609237  -0.000769141   -0.00184471   0.000480415  -0.000358594    0.00031249   0.000189381
     0.175547      0.103424     0.0417557    -0.0712506   -0.00792929   -0.00541927  -0.000918441   -0.00185223  -0.000105449  -0.000396388  -0.000165143  -0.000352761
     0.178487      0.104356     0.0396669    -0.0704739   -0.00865031   -0.00666735    -0.0013752  -0.000453018   0.000265289  -0.000228128  -0.000124921 -1.97183e-005
     0.183062      0.104852     0.0391178    -0.0704488   -0.00703926   -0.00716151  -0.000829682  -0.000760899   0.000429555  7.99477e-005  -0.000503955     0.0001237
     0.194032      0.102233     0.0359454    -0.0695921   -0.00885803   -0.00742176  -0.000864289   -0.00129621   0.000114256     0.0005003  -0.000260366   0.000213183
     0.198442      0.100819     0.0291343     -0.073621    -0.0103802    -0.0072077    0.00081248  -0.000241364  3.25087e-005 -9.34723e-005  -0.000550313  -0.000223784
     0.196948      0.101492     0.0291872    -0.0713048   -0.00828076   -0.00774695  -0.000195168   -0.00144651   0.000206662   0.000564353 -1.13098e-005  -0.000383008
     0.200933      0.104777      0.030995      -0.07067   -0.00719391    -0.0063859 -3.63488e-005   -0.00221458   0.000151915  6.27495e-005   0.000557734   0.000275355
     0.209943      0.102198     0.0315667    -0.0713638    -0.0102205   -0.00847678    0.00213585   -0.00191943   -0.00064914   0.000154555  -0.000350938  -0.000467459
     0.214723     0.0987204     0.0296863    -0.0684663    -0.0106447   -0.00906304   0.000181589   -0.00258603  -0.000324483  -0.000254419  -0.000584264  -0.000558146
     0.211717      0.106163     0.0282269    -0.0680503   -0.00756037   -0.00807416    0.00018375   -0.00136402  4.41438e-005 -8.85012e-005  -0.000544939    -0.0002192
     0.225096      0.120853     0.0437226    -0.0718173   -0.00472908   -0.00596947     0.0005032   -0.00222241   0.000126096   0.000494023  -0.000258281   0.000229981
     0.227397      0.128517     0.0436113    -0.0775392   -0.00392058   -0.00490301    0.00110331   -0.00248161  -0.000293484  -0.000186374   0.000254654   0.000548639
     0.231707      0.128147      0.039787    -0.0814629   -0.00600031   -0.00659759    0.00282587   -0.00213412   0.000535004   0.000221599   0.000602593    0.00063114
     0.241949      0.122217     0.0340794    -0.0852901   -0.00691442   -0.00627663    0.00168737   -0.00216608   0.000438021  7.63967e-005  -0.000495137   0.000141524
     0.237635       0.10637     0.0243666    -0.0776782    -0.0101239   -0.00924952  -0.000278628   -0.00305436  -0.000405719  2.61355e-005  8.15397e-005  -0.000261301
     0.228723     0.0903914     0.0143247    -0.0650936    -0.0134848    -0.0103565    -0.0014557   -0.00151707 -2.89348e-005  -0.000321629  9.07446e-005  -0.000969373
     0.225633     0.0893138     0.0129663    -0.0603351    -0.0122505    -0.0100221   -0.00124975   0.000298396   0.000487598   0.000152887  -0.000249725  -0.000496847
     0.225037      0.106022     0.0215702    -0.0646374   -0.00828772   -0.00901316   -0.00149259   -0.00230783   0.000158309   6.8103e-005   0.000559601    0.00026857
      0.22076      0.111183     0.0186006    -0.0672193   -0.00534066   -0.00786123   -0.00115539    -0.0021073   0.000420516    0.00043487   0.000422571  -0.000182245
     0.230611      0.111977     0.0253488      -0.06705   -0.00535259   -0.00751187   -0.00253415   -0.00268389 -2.91173e-005   0.000199756   0.000126092  7.82883e-005
     0.234739      0.111398     0.0205513    -0.0721554    -0.0054123   -0.00758301  -0.000808334   -0.00319434  -0.000408633  2.72949e-005  8.09979e-005  -0.000259928
     0.229533      0.109587     0.0134945    -0.0713331   -0.00546509   -0.00796451   -0.00163929   -0.00329499  -0.000614562   0.000165063  -0.000348661  -0.000462578
      0.23225      0.110568     0.0137791    -0.0709281   -0.00636998    -0.0078634   -0.00154898   -0.00275173  -0.000412197  2.87443e-005  7.93576e-005  -0.000265934
     0.235033      0.107313    0.00544252    -0.0765411   -0.00893633   -0.00725042  -0.000883843    -0.0030473    0.00042023  9.82709e-005  -0.000481065   0.000124205
     0.237392      0.112599     0.0130104    -0.0747653   -0.00778769    -0.0066373  -0.000980579    -0.0018399  -0.000890347  -0.000213035  -0.000222372 -1.30118e-005
     0.241276      0.117256     0.0187423    -0.0727058   -0.00504932   -0.00631715    -0.0010638  -0.000749572   0.000263269  -0.000227137  -0.000122124 -1.71608e-005
     0.238107      0.117481     0.0183633    -0.0741037   -0.00548898   -0.00646008  -0.000998953   -0.00294371   0.000223119   0.000568604 -3.57367e-006   -0.00037172
     0.244275        0.1187     0.0253833    -0.0724268     -0.004872   -0.00629993  -0.000898694   -0.00391483   0.000175601  6.71879e-005   0.000565768   0.000287683
     0.250809      0.118515     0.0277183    -0.0697077   -0.00533264   -0.00664651  -0.000243056    -0.0027103  -0.000102988  -0.000394597  -0.000158024  -0.000347617
      0.24667       0.11721     0.0218418    -0.0700753   -0.00649491   -0.00571052  -0.000549844   -0.00228934  -0.000112799  -0.000393762  -0.000158268   -0.00035208
      0.25119      0.115806     0.0231606    -0.0712157   -0.00693127   -0.00597882  -0.000496472   -0.00236733  5.29088e-005 -8.62359e-005  -0.000538068  -0.000209745
     0.255224       0.11423     0.0196117    -0.0738829   -0.00889279   -0.00815506  -0.000251534  -0.000852392 -5.18193e-005   0.000189401   0.000118821  7.09159e-005
      0.25902       0.11387     0.0165011    -0.0772902    -0.0104937   -0.00779428   -0.00109339   -0.00263602 -9.91498e-005  -0.000390539  -0.000156093  -0.000353093
     0.259147      0.117893     0.0183707    -0.0826278   -0.00897619   -0.00746237   0.000811421   -0.00303065  -0.000619237   0.000155828  -0.000348392  -0.000455153
     0.254701      0.118807     0.0189104    -0.0788191   -0.00918555   -0.00834739   0.000281386   -0.00115702  5.24511e-005   0.000250532     0.0003664  -0.000520171
     0.256621      0.117331     0.0222061    -0.0732206   -0.00822492   -0.00674326  -0.000450607   -0.00152957   0.000260718   -0.00022439    -0.0001134 -1.40549e-005
     0.259362      0.114058     0.0190179    -0.0739771   -0.00588953    -0.0082813  -0.000507465   -0.00106075   0.000267704  -0.000226047  -0.000119874 -1.67249e-005
     0.247532      0.107272     0.0106478    -0.0705324   -0.00592717    -0.0089139   -0.00273952  -0.000779758   -0.00040722  2.12633e-005  6.38875e-005  -0.000275043
     0.242869     0.0983524    0.00435919    -0.0661433   -0.00906591   -0.00926662   -0.00161307   -0.00138389  -0.000272757   0.000337784  -0.000303256  -0.000140556
     0.249697     0.0981588    0.00985624    -0.0652371   -0.00886666   -0.00918448   -0.00252132    -0.0025053   0.000156933  7.45148e-005   0.000563367    0.00026433
     0.248975      0.103619    0.00946336    -0.0695164   -0.00797186   -0.00899153  -0.000550136   -0.00320178  -0.000796112  -0.000140123  3.70108e-005  -0.000609558
     0.244331     0.0963759    0.00283184    -0.0664798   -0.00885794    -0.0101201  -0.000752496   -0.00213522   0.000193286   0.000577668  1.49615e-007  -0.000393439
     0.246183       0.11394    0.00742875      -0.07611   -0.00421804   -0.00736118   0.000413833   -0.00161281  -0.000263738   0.000328253  -0.000308061  -0.000126123
     0.248499        0.1147    0.00451949    -0.0796637   -0.00547504   -0.00800595  -0.000400384   -0.00145382  -0.000415988  2.03754e-005  6.92788e-005  -0.000268361
     0.248538     0.0986124   -0.00495832    -0.0762062    -0.0116461      -0.01157   -0.00156746   -0.00249986   0.000469213  -0.000339485   0.000326799   0.000170002
     0.252536      0.103869   -0.00508744    -0.0818739    -0.0106544   -0.00924198  -0.000365148   -0.00274044  -0.000158298   0.000488845   0.000802233   0.000357573
     0.247708      0.100555   -0.00436297    -0.0799142   -0.00855596    -0.0101832   -0.00137744   -0.00111533   0.000524274   0.000154599  -0.000249837  -0.000482713
      0.26171      0.107683    0.00275799    -0.0874622   -0.00947025    -0.0103263   0.000894342   -0.00326861  -0.000138536   0.000140673  -0.000112795   0.000672278
     0.275003      0.115717     0.0109217    -0.0917509   -0.00991633   -0.00807246   0.000321078   -0.00304422  7.50604e-005 -8.55703e-005  -0.000536897  -0.000203974
     0.270963      0.118208    0.00231633    -0.0961526    -0.0122004   -0.00845872   0.000828493   -0.00254845   0.000333681   0.000369231   0.000179521   0.000421194
     0.280278      0.123442     0.0102967    -0.0999337    -0.0121947   -0.00923279    0.00222833   -0.00243627   0.000132108   0.000496353  -0.000253816   0.000227687
     0.277016      0.123181     0.0236469    -0.0864575   -0.00811316   -0.00895749    0.00111683   -0.00312993   0.000140136   0.000498867  -0.000251632   0.000231918
     0.268338      0.112246     0.0158195    -0.0804421   -0.00835101    -0.0103803   0.000639216   -0.00327525   0.000375242  -0.000153942   0.000143075  -0.000604125
     0.264356     0.0986513    0.00501805     -0.075735    -0.0113064    -0.0120035   -0.00033384   -0.00133895   -0.00011268  -0.000389556   -0.00016222  -0.000369663
     0.251296     0.0931789    0.00259402    -0.0660261    -0.0101284    -0.0113212  -0.000494407   -0.00178176   3.2273e-005 -7.47223e-005  -0.000535084  -0.000232923
     0.253297     0.0964937  -0.000198475    -0.0716217    -0.0102846    -0.0111368 -6.80751e-005   -0.00198197 -6.71619e-005   0.000206243   0.000132374  5.96448e-005
     0.262241      0.101289    0.00376804    -0.0756459    -0.0115534    -0.0112265  -0.000342582    -0.0028655  -0.000111055  -0.000382277   -0.00015074  -0.000363506
     0.243716      0.102798    0.00449973    -0.0630531    -0.0060335    -0.0106387   -0.00256262   -0.00188668  5.15936e-005   0.000267896   0.000372586  -0.000533652
     0.237648      0.101044    0.00314409    -0.0616761   -0.00511865    -0.0120656   -0.00369748   -0.00142713   0.000128134   0.000512774  -0.000261056      0.000199
     0.250461     0.0989178    0.00707527    -0.0687718   -0.00792709    -0.0103955    -0.0022188   -0.00292084   0.000220678   0.000579096 -6.33012e-008  -0.000385941
     0.251217     0.0994532     0.0042199    -0.0710758   -0.00610907    -0.0113785   -0.00244337   -0.00491028  -0.000491301 -1.79212e-005  -0.000154322   0.000330595
     0.249146      0.100254    0.00644431    -0.0684067   -0.00583281    -0.0114572   -0.00380648   -0.00371674   -0.00054429  -0.000612399  -0.000451719   -0.00010488
     0.246239     0.0988731     0.0037507    -0.0670955   -0.00689814    -0.0104144   -0.00247968   -0.00367639   0.000369538  -0.000139009   0.000148348  -0.000616512
     0.248433      0.096566   0.000476649    -0.0683394   -0.00791225    -0.0109086    -0.0027213   -0.00227957   0.000326532   0.000383175   0.000179369   0.000401881
      0.25557      0.100092     0.0104252    -0.0696818   -0.00906335   -0.00815002  -0.000916066   -0.00289823   0.000103868   0.000514749  -0.000242795   0.000211601
     0.255578     0.0977418    0.00625477    -0.0720869   -0.00942501   -0.00927312  -0.000683069   -0.00224795  -0.000365725   0.000276602  -0.000544994   0.000461608
     0.257254     0.0953482   -0.00370783    -0.0781415   -0.00974309    -0.0112037   -0.00257855   -0.00247832    0.00027631  -0.000206401  -0.000107619 -2.62291e-005
     0.262114     0.0999156    0.00292489    -0.0777185    -0.0114602    -0.0102781   -0.00162837   -0.00336368  -0.000262534  -0.000686766   0.000230939  -0.000501756
     0.267386      0.103361    0.00819657     -0.078127    -0.0115524    -0.0102293   0.000481736   -0.00182204   0.000514146   0.000153254  -0.000240386  -0.000476453
     0.260399      0.104999    0.00485754    -0.0766849   -0.00923975    -0.0106476  -0.000625956   -0.00213811   0.000265087   -0.00021398  -0.000108793 -2.23189e-005
     0.261374       0.10381     0.0126002    -0.0705287   -0.00633148    -0.0113571   -0.00207127   -0.00252057  -0.000396868  2.89609e-005  7.54094e-005  -0.000269302
     0.269942      0.107587     0.0203743    -0.0722906   -0.00693458     -0.011363   -0.00202931   -0.00310427  3.41398e-005  -0.000583766  2.43333e-005    0.00044145
     0.269433      0.107327     0.0136155    -0.0722316   -0.00807424    -0.0109152   -0.00104436   -0.00214669  -0.000161213  -0.000635632   0.000466058   -0.00109617
     0.266264      0.103063      0.014816    -0.0689176   -0.00728731    -0.0116051   -0.00110599   -0.00180864  6.39318e-005 -8.28224e-005  -0.000543543   -0.00022176
     0.262663      0.105561     0.0127517    -0.0707646   -0.00693083    -0.0113553   -0.00134003   -0.00263062  -0.000195774  -0.000105029   0.000508211 -6.97483e-005
     0.262184       0.10696      0.011321    -0.0711546   -0.00580834    -0.0115189   -0.00372637   -0.00258946 -6.82249e-005  -0.000386067  -0.000164624  -0.000358335
     0.266239      0.106775     0.0159737    -0.0699359   -0.00492482    -0.0123947   -0.00222203   -0.00106965   0.000127266   -0.00052948   0.000255845  -0.000164014
      0.26575      0.108164     0.0115663    -0.0724934   -0.00633186    -0.0106588   -0.00149462   -0.00128891  -0.000257536  -0.000701829   0.000210928  -0.000503901
     0.259201      0.103579    0.00739064    -0.0711407   -0.00642482    -0.0104303   -0.00243665   -0.00304977  -0.000300804  9.56167e-005   0.000327251  -0.000863597
     0.260144      0.100664     0.0106618     -0.067845   -0.00665311    -0.0119467   -0.00164045  -0.000829359 -8.60176e-005    0.00063816  -0.000694162   3.5167e-006
     0.258207     0.0993528     0.0104938     -0.066431   -0.00625127    -0.0126317   -0.00283573    -0.0019078  -0.000233964    0.00033706  -0.000308908   -0.00013479
     0.254872      0.102757    0.00710863    -0.0695145   -0.00498121    -0.0130919   -0.00277717   -0.00301197  -0.000429924   0.000474964  -0.000734588  -0.000328276
     0.259183      0.107994      0.009912     -0.072092   -0.00371817    -0.0132622   -0.00175596   -0.00267351  -0.000122802   0.000397757 -6.13177e-005  -0.000721254
     0.254913      0.106296     0.0102208    -0.0692798    -0.0038405    -0.0116771   -0.00312883   -0.00287574  -0.000220217   0.000338708  -0.000306307   -0.00012623
     0.258199      0.108198      0.013333    -0.0706744    -0.0038103    -0.0124747   -0.00249346   -0.00326019  -0.000166406  -0.000447282  -0.000408412   0.000240349
     0.259905      0.108297     0.0158443    -0.0702362   -0.00573574     -0.011855   -0.00207554   -0.00227005  -0.000488944 -3.66778e-005  -0.000175533   0.000326811
     0.256004      0.105633     0.0139751    -0.0687186   -0.00441526    -0.0108011   -0.00119986   -0.00279974   0.000173626  6.91169e-005    0.00055842   0.000272462
     0.257637      0.105727     0.0167887    -0.0659644   -0.00341816    -0.0129429    -0.0025331   -0.00239491  -0.000793324   0.000380539  5.97635e-005   0.000416228
     0.263079      0.107814     0.0189497    -0.0667272   -0.00611443    -0.0136828   -0.00210913   -0.00153518   0.000144245   0.000503704  -0.000263724   0.000209174
     0.261092      0.110718     0.0114372    -0.0719086    -0.0062685    -0.0117019   -0.00187472   -0.00261054  1.64001e-005  -0.000325783  8.51113e-005   -0.00095282
     0.260985      0.109016     0.0130412    -0.0681896   -0.00621737    -0.0105781    -0.0014921   -0.00200914  -0.000452194   0.000466872  -0.000736802  -0.000328338
     0.271587      0.111836     0.0276448    -0.0655373   -0.00734714    -0.0116792   0.000974615   -0.00240589  5.66025e-005 -8.64684e-005  -0.000537936  -0.000214265
     0.271836      0.113174     0.0300871    -0.0663278   -0.00653955    -0.0114656  -0.000141711    -0.0018406   0.000439315  8.37586e-005   -0.00049491   0.000126548
     0.268981      0.115004      0.023322    -0.0678821    -0.0046499    -0.0120167  -0.000634994   -0.00229938   0.000329743  -0.000662098   0.000696129  4.37571e-005
     0.268322      0.117885      0.023131    -0.0684679   -0.00185445    -0.0106076   0.000213513   -0.00257872   0.000117325  -0.000529245   0.000266919  -0.000150904
     0.258202      0.117253     0.0214742    -0.0652372   -0.00290562    -0.0109649  -0.000119259   -0.00318228 -9.24115e-005  -0.000390128  -0.000157704  -0.000351361
     0.257104      0.119241     0.0209174    -0.0646937    -0.0050656    -0.0116767  -0.000290265   -0.00299055 -9.31849e-005    -0.0003903    -0.0001577  -0.000354029
     0.252082      0.115549      0.019247    -0.0637882   -0.00308006    -0.0100596    0.00050242   -0.00310992  -0.000418067  2.65883e-005  8.17287e-005  -0.000263267
     0.251249       0.11698     0.0147637    -0.0646794   -0.00163389    -0.0105855   0.000108984   -0.00356906   0.000271053    -0.0002124  -0.000103755 -1.17732e-005
     0.253734      0.118851     0.0175654    -0.0668704   -0.00252351    -0.0128346  -0.000951391    -0.0032637   0.000146489   0.000508076   -0.00025399   0.000219888
     0.251422      0.115176     0.0168483    -0.0658012   -0.00412744    -0.0131237    -0.0013599   -0.00302934   0.000291039  -0.000213936  -0.000110565 -1.57123e-005
     0.251983      0.116022     0.0187171    -0.0656696   -0.00388414     -0.013621     0.0020392   -0.00482902 -3.94451e-005   0.000207333   0.000143084  8.17806e-005
     0.250261      0.119288     0.0208607    -0.0668202   -0.00237954    -0.0128818   0.000567374   -0.00503263   0.000240703   0.000576771  6.78927e-006  -0.000367208
     0.249614      0.125894     0.0217642    -0.0662553    0.00250263    -0.0106256  -0.000720462   -0.00354089  -0.000175293  -0.000110337   0.000504093  -5.4725e-005
     0.247259      0.120261     0.0190349    -0.0676464   -0.00107418     -0.011087    0.00043096   -0.00359091  -0.000192736  -0.000107663   0.000510065 -5.90981e-005
     0.249614      0.118039     0.0163123    -0.0717044   -0.00412917     -0.012954    0.00142952   -0.00392594  -0.000500575 -3.40867e-005  -0.000163128   0.000335403
     0.248829      0.118692     0.0170712    -0.0687921    -0.0034429      -0.01226    0.00201385   -0.00519185   0.000332067   0.000381918   0.000195392   0.000426049
     0.245356      0.111109     0.0167378    -0.0644642   -0.00535863    -0.0127223    0.00220093   -0.00372287 -1.84557e-005  -0.000322315  9.93281e-005  -0.000951607
     0.247447      0.110923      0.023835     -0.061232   -0.00452235    -0.0118746   0.000576607    -0.0037438  -0.000201991  -0.000447287  -0.000397255   0.000241095
     0.242047      0.109149     0.0190961    -0.0596228    -0.0052516    -0.0109376  8.66806e-005   -0.00326382 -5.39565e-005    0.00020531   0.000136144  7.19296e-005
     0.243995      0.113124     0.0171977    -0.0615534   -0.00391821    -0.0106386  -0.000722643    -0.0023041  -0.000105175  -0.000389697  -0.000160857  -0.000360322
     0.253482      0.123251     0.0299966    -0.0680961   -0.00166415   -0.00927435  7.07725e-005   -0.00258423    0.00065338 -5.05278e-005 -6.41521e-005   0.000334891
     0.255752      0.128813     0.0352537    -0.0684811   -0.00178286    -0.0102594   0.000518213   -0.00420444  8.40971e-005   0.000257683   0.000378509  -0.000500994
     0.254564      0.138184     0.0415409    -0.0716946    0.00211576   -0.00978106   0.000412309   -0.00388263   0.000478663  7.94664e-005  -0.000495064   0.000152662
     0.250232      0.139015     0.0381676    -0.0731238    0.00181366   -0.00817729   0.000353838   -0.00403509   0.000210612  -0.000288853  -0.000359289    0.00060683
     0.245781      0.126811     0.0284669    -0.0670304  -0.000632642   -0.00806666  -0.000380011   -0.00233263  7.95355e-005 -5.84276e-006   0.000303474   0.000878481
     0.245465      0.116087     0.0233925    -0.0639037   -0.00357966    -0.0104725   0.000321987   0.000186573  4.48521e-005    0.00024598   0.000355054  -0.000529663
      0.24276      0.120436     0.0203285    -0.0687178   -0.00495525    -0.0102413   0.000438692   -0.00236231   0.000268326  -0.000220687   -0.00011133 -1.40042e-005
     0.241857      0.125374     0.0232934     -0.072188   -0.00177032   -0.00840052   0.000595339   -0.00264399  -3.4265e-005   0.000191963   0.000123441  8.45104e-005
     0.242348      0.121683     0.0263935    -0.0676676   -0.00353305     -0.009961   0.000724359   -0.00134676    9.621e-007  -0.000253843   0.000927386     0.0001332
     0.239278      0.108112      0.018135    -0.0619073   -0.00720491     -0.010792  -0.000758338  -0.000825808  -0.000574611   0.000744145 -7.45011e-005 -4.68833e-005
     0.230713     0.0953499     0.0149741    -0.0509755   -0.00592469    -0.0117309   -0.00187669  4.90912e-005   -0.00053827 -3.77154e-005  -0.000181628    0.00030349
      0.23005       0.09824      0.013065    -0.0523667   -0.00627108    -0.0113188   -0.00145606  -0.000805729  2.75607e-005   0.000264148   0.000369616  -0.000542184
     0.234164      0.110421     0.0150009    -0.0640498   -0.00656129    -0.0115763  -0.000404089  -0.000270446  -0.000159679  4.35309e-005   -0.00098384  -0.000428946
     0.230231      0.113338     0.0216516    -0.0600898    -0.0045019    -0.0104247   0.000187969   -0.00128843   0.000252061  -0.000221579  -0.000115838 -2.38745e-005
     0.229968      0.114963     0.0235323    -0.0560967   -0.00185176   -0.00894921  -0.000330569   -0.00105881   0.000620708 -4.91176e-005 -6.79821e-005   0.000317535
     0.230879      0.122282     0.0258235    -0.0638871   0.000235089   -0.00835696   0.000125497     -0.001217   0.000330605  1.72815e-005  -0.000749912   0.000722067
     0.241396      0.130611     0.0334422    -0.0736799    -0.0016196    -0.0107789    0.00108299    -0.0012773   0.000965995  -0.000133115   0.000600208 -6.21574e-005
     0.246354      0.134279     0.0360176    -0.0748499   0.000489228   -0.00956559    0.00265328   -0.00175506 -2.80807e-005   0.000178538   0.000112632   8.9987e-005
     0.239328      0.132203     0.0342152    -0.0692597   0.000286979   -0.00716929    0.00257995   -0.00369676    0.00057851  -0.000640137  -0.000342114 -8.61945e-005
     0.233615       0.11716     0.0275306    -0.0612366    -0.0031244   -0.00925742   0.000525189   -0.00191569   0.000464532  -0.000356165   0.000317264   0.000183054
     0.232941      0.111054     0.0314468    -0.0553562   -0.00511267    -0.0105758   0.000700867  -0.000985753  -0.000119491  -0.000312328   0.000684143   0.000718549
     0.239103      0.108678     0.0375025    -0.0523768   -0.00643236    -0.0119655   0.000292942   0.000743325    0.00030545   0.000356889   0.000158815   0.000398929
     0.231876      0.100836     0.0314789    -0.0484377   -0.00665234    -0.0126986  7.29227e-005    0.00137683   0.000391359   0.000421459   0.000404246  -0.000205467
     0.231947      0.111823     0.0319969    -0.0577658   -0.00445176    -0.0105106  -0.000494694   0.000402573   0.000528631  -0.000119893  -0.000326296   0.000907867
     0.234272      0.120799     0.0368889    -0.0584479  -0.000160235   -0.00937573  -0.000238776  8.91812e-006   0.000431395  7.23641e-005  -0.000512141   0.000123168
     0.235698       0.12228     0.0432508    -0.0580322    -0.0021535    -0.0073644   0.000157855   0.000687655  -0.000218162  -0.000132199   0.000483582 -6.94237e-005
     0.234378      0.123265     0.0372282    -0.0635226  -0.000985244   -0.00766567    0.00132916  -0.000685206   0.000524244   0.000221036   0.000592945    0.00061766
     0.220297      0.125359     0.0346276     -0.058096    0.00302911   -0.00826424  -0.000287303  -0.000952748  -0.000299695  -0.000185832   0.000241899   0.000531235
     0.222587      0.125282     0.0400369    -0.0586142    0.00321933   -0.00765351     0.0005438   -0.00124343  -0.000101071  -0.000406503  -0.000175765  -0.000349145
     0.225185      0.117519     0.0302942    -0.0618955   -0.00109128   -0.00871473     0.0016439   -0.00245111  5.20536e-005 -2.54791e-006   0.000309833   0.000872955
     0.224998      0.110952     0.0219531    -0.0639527   -0.00374456    -0.0105589   0.000434876   -0.00209517    -0.0002137  -0.000110739   0.000504447 -7.02103e-005
     0.227373      0.106006     0.0226544    -0.0617272   -0.00557949   -0.00979935   0.000959672   -0.00059796   0.000189288   0.000561539 -1.41575e-005  -0.000390698
     0.227394      0.110446     0.0289887    -0.0576459   -0.00230055   -0.00927162   0.000953461  -0.000783102  -0.000165514   0.000127352  -0.000129661   0.000662432
     0.225708       0.11171     0.0260545    -0.0614838   -0.00364339    -0.0109404    0.00114752  -0.000620309  -0.000638023   0.000148453  -0.000365864  -0.000473692
     0.223958      0.111324     0.0259399    -0.0646121   -0.00322664    -0.0117125    0.00127383   -0.00137739  -0.000110095  -0.000398283  -0.000169184  -0.000360986
     0.222762      0.113164     0.0284299    -0.0670742   -0.00133735    -0.0088346   0.000352464   -0.00279386   0.000124209   0.000503633  -0.000254883   0.000222496
     0.230482      0.115407     0.0372887    -0.0638766  -0.000675726   -0.00943401  -2.4366e-005   -0.00202354  -0.000194113  -0.000117917   0.000497725 -6.03667e-005
     0.234708      0.123767      0.045471    -0.0642076    0.00147686   -0.00896391  -0.000228375   -0.00353557   -0.00010923   0.000129225    -0.0001237   0.000689119
     0.229904      0.113551     0.0339621     -0.061576   -0.00237526    -0.0098794 -8.55068e-006   -0.00218325  9.81789e-006  -0.000592187  1.82764e-005   0.000440571
     0.234396      0.124138     0.0341276    -0.0689813   0.000623454   -0.00939844    0.00114657   -0.00206387   0.000182421  -0.000291822  -0.000367701   0.000589783
     0.237191      0.130657     0.0385112    -0.0761446    0.00381504   -0.00887284    0.00194992   -0.00286271   0.000559837   0.000137294  -0.000254351   -0.00044652
     0.241612      0.119282     0.0423736    -0.0666804  -0.000472054   -0.00877273   0.000881346    -0.0023329   -0.00012809   0.000124642  -0.000127743   0.000682457
      0.24301      0.121552     0.0419352    -0.0680119  -0.000593955   -0.00749233    0.00109116   -0.00136117  2.68806e-005   0.000426771  -0.000513559   0.000821799
      0.23964      0.115413     0.0350602    -0.0676805   -0.00278983   -0.00846368   0.000997941   -0.00113907   0.000426934  7.70051e-005  -0.000501508   0.000129186
     0.233264      0.111662     0.0351949    -0.0637747   -0.00247457   -0.00965733   -0.00056165   -0.00128223  -0.000503271 -4.75137e-005  -0.000183237   0.000329936
     0.228782      0.112269     0.0357919    -0.0573831   0.000455494   -0.00950654  -0.000580485  -0.000430782  -0.000510991 -5.08698e-005  -0.000189506   0.000325596
     0.228542      0.108753     0.0314791    -0.0572521   -0.00100641   -0.00939311   -0.00155559  -0.000368741  2.23513e-005   0.000433686  -0.000518363   0.000804026
     0.221389      0.106247     0.0278036     -0.059547   0.000152002   -0.00928172   0.000228766   0.000741772 -6.12413e-005    0.00018284   0.000102829  6.24872e-005
      0.22471       0.11502     0.0364825    -0.0617818    0.00275408   -0.00773099  8.07999e-005   0.000503658  -0.000307595  -0.000192251   0.000232543   0.000526214
     0.220619      0.115548     0.0353117    -0.0645477    0.00238001   -0.00839252   -0.00021768   0.000401567  -0.000135873   0.000115647  -0.000148788   0.000668257
     0.214923      0.110317     0.0265127    -0.0631242    0.00181376   -0.00999629  8.96665e-005    0.00122289  5.39743e-005  -0.000103312  -0.000572303  -0.000226362
     0.215486       0.10964     0.0269617    -0.0628858    0.00345266    -0.0104821   -0.00101281    0.00169527 -3.63939e-005   0.000176391  8.77903e-005  6.21476e-005
     0.214602      0.105741      0.027695    -0.0590094    0.00279825   -0.00925758   0.000296232   0.000463808   0.000149659  4.99648e-005    0.00053281   0.000263536
     0.211786      0.104644      0.029195    -0.0542966    0.00212368    -0.0101826   0.000360909     0.0018132   0.000510147   0.000218865   0.000575576   0.000595648
     0.204463      0.104102     0.0298812    -0.0517594    0.00525116   -0.00846755  -0.000468911    0.00114185  4.07652e-005 -9.95835e-005  -0.000569976  -0.000228934
     0.208401      0.104003     0.0266752    -0.0560989    0.00448877   -0.00934065   0.000209674   0.000847294   0.000146071  4.93767e-005   0.000529714   0.000260554
      0.21877      0.110417     0.0327496    -0.0617721    0.00516578   -0.00868308   0.000188087    0.00098898  -0.000203626  -0.000474949  -0.000440154   0.000233077
     0.219964      0.122036     0.0397746    -0.0629691     0.0089105   -0.00842785  -0.000442548    0.00068361  8.85102e-005 -2.41056e-005   0.000271722   0.000872824
     0.220153      0.123508     0.0407791    -0.0640136     0.0082324   -0.00864173   0.000865756    0.00075471 -2.44215e-005  -0.000174097  -0.000824679   0.000384522
     0.221911      0.121165      0.043452    -0.0625349    0.00625429     -0.006022    0.00122778   0.000367912   0.000574076  -0.000658561  -0.000375577  -0.000100133
     0.227264      0.116249     0.0417863    -0.0632933    0.00439489   -0.00762643    0.00204388   0.000980768  -0.000104753  -0.000676599   -0.00025464    0.00103296
     0.232739      0.104785     0.0436675     -0.058176  -0.000256012   -0.00923436    0.00217868   0.000445999  -0.000427911  -0.000253457 -7.51473e-006     0.0011175
     0.229818     0.0998917     0.0384619    -0.0535297   -0.00279746   -0.00858603    0.00130843  1.04074e-005 -3.59665e-005  -0.000254847   0.000925428   0.000121634
     0.224008     0.0960383     0.0285802     -0.054209   -0.00500456   -0.00760643   0.000656483   -0.00016878   0.000377977   0.000428726   0.000417569  -0.000195236
     0.226004      0.096148     0.0312443     -0.055339   -0.00332543   -0.00752809    0.00155785  -0.000650263   0.000220461  -0.000223089   -0.00011439 -2.65345e-005
     0.231892     0.0986186     0.0298506    -0.0605227   -0.00366434   -0.00909005    0.00315703  -0.000523501  1.28986e-005 -9.27681e-005  -0.000546415   -0.00022468
     0.227812     0.0898978     0.0234758    -0.0574992   -0.00447057   -0.00967203    0.00139184   0.000541149  -0.000151145  -0.000399028  -0.000172828  -0.000376938
     0.222692     0.0951854     0.0210557    -0.0550376   -0.00270943    -0.0094353  -0.000414711  -0.000256996  -0.000177752  4.69724e-005  -0.000981678   -0.00043111
     0.226758      0.111903     0.0328188    -0.0604658    0.00278113   -0.00901927  -0.000312893  -0.000721787   0.000172983   -0.00029199  -0.000376061   0.000578714
     0.223207        0.1109     0.0365623    -0.0576212    0.00463992   -0.00736304   0.000168493   -0.00119656    0.00022449   0.000298896 -8.46514e-005    0.00101322
     0.222548     0.0995914     0.0306735    -0.0515262    0.00284048   -0.00886162   0.000236046 -5.77621e-005    0.00071072  9.31397e-006   0.000170432  -0.000281414
     0.223446     0.0944859     0.0273359    -0.0501202    0.00184079   -0.00797649    0.00024493  -0.000146563   -0.00014557 -5.31018e-005    0.00074131  -0.000675812
     0.220728     0.0951788     0.0237125    -0.0523294   0.000884149   -0.00801248    0.00117491  -0.000728767   -0.00015277 -5.01338e-005   0.000747428  -0.000674735
     0.222102     0.0995157      0.025718    -0.0562887    0.00248868   -0.00745646    0.00084831  -0.000920064  -0.000281036   0.000326613  -0.000313149  -0.000131422
     0.226937     0.0970542     0.0231535    -0.0601579   0.000833008   -0.00709523    0.00109594   -0.00300172  -0.000228192  -0.000448344  -0.000400717   0.000239533
     0.220488       0.10239     0.0218733     -0.062182     0.0021995    -0.0061519    0.00106159   -0.00134748  -0.000339612  -0.000261958   -0.00059755  -0.000558185
     0.220966      0.103408     0.0286368    -0.0568488    0.00502585    -0.0051766    0.00137526  -0.000188787 -8.11091e-005   0.000186321   0.000111518   6.9881e-005
       0.2351      0.101474     0.0311783    -0.0605099  -0.000616972   -0.00609743    0.00193742 -7.81521e-005    0.00059523 -5.61317e-005 -7.12967e-005   0.000318409
      0.23503      0.106216     0.0254756    -0.0675384   0.000338898    -0.0062808   0.000616415  -0.000874258  -0.000636958   0.000148181  -0.000366161  -0.000465154
     0.230634      0.111003     0.0267564    -0.0656108    0.00265066   -0.00698455    0.00124314   -0.00127633  4.16481e-005   0.000250427   0.000362451  -0.000517726
     0.232053      0.109703     0.0282887    -0.0645406    0.00364144   -0.00758074    0.00124378  -0.000590783   0.000314357   0.000358512   0.000159813    0.00041522
     0.239992      0.108272     0.0343694    -0.0631567    0.00417409   -0.00667527    0.00168137  -0.000257084   0.000412427  7.32641e-005  -0.000508902   0.000127198
     0.239346      0.108856     0.0391818    -0.0620706    0.00285891   -0.00732404    0.00202315  -0.000377646   0.000309025   0.000354608   0.000159856   0.000417257
     0.229575      0.107084     0.0310689      -0.05957    0.00225619   -0.00787525   -0.00069381   -0.00162657 -9.24734e-005  -0.000655164  -0.000234327    0.00103415
     0.229576      0.105794     0.0317585    -0.0577859    0.00380311   -0.00781891  -0.000915504   4.7536e-005    0.00016494  -0.000293088  -0.000380086   0.000574316
     0.229356      0.107372     0.0333659    -0.0581373    0.00399355   -0.00678101  -0.000567546  -0.000379134  -0.000148655   0.000123327  -0.000139678   0.000668175
     0.228053      0.110421     0.0329059    -0.0581418    0.00408437   -0.00631219   -0.00026346    -0.0012247  -0.000100309  -0.000658797  -0.000236888    0.00103529
      0.22367      0.111324     0.0381955    -0.0543072    0.00677605   -0.00653186   0.000669325  -0.000870175  -0.000170226  -0.000907988   0.000386784   0.000299122
     0.221578      0.114633     0.0504373    -0.0518562    0.00818644   -0.00616643   0.000430778   -0.00152686   0.000109347   -0.00088331  -0.000659359   0.000159196
     0.221253      0.113751     0.0577562    -0.0475404    0.00912976   -0.00664424   0.000723163     -0.002179   -0.00098323   5.7588e-005    0.00043499   0.000292306
     0.214117      0.116868     0.0602781    -0.0470462     0.0114545   -0.00620684   -0.00110884   -0.00152736   0.000185149   4.8001e-005   0.000535736   0.000288554
     0.211082      0.121599     0.0599077    -0.0483771      0.013228   -0.00588976   -0.00012619   -0.00150175 -2.51873e-005    0.00017909   0.000104053  9.19233e-005
     0.206524      0.119972     0.0650266     -0.044158     0.0126593   -0.00677244  -0.000593995   -0.00230226 -7.86185e-005  -0.000405951   -0.00017772  -0.000337238
     0.201831      0.126234     0.0798954    -0.0392101      0.015079   -0.00835598 -3.20779e-005   -0.00133656  -0.000542834  -0.000308447   0.000427682  -0.000386935
     0.196837      0.126608       0.08379    -0.0375281     0.0159551   -0.00726451  -0.000128368   -0.00299818   0.000305283  -0.000235472  -0.000127529  1.28669e-005
     0.189244      0.119253     0.0826695     -0.029764     0.0163765   -0.00681344   -0.00256837   -0.00167633  -0.000376154  5.91409e-006  4.98999e-005  -0.000247628
     0.187824      0.119251     0.0893577    -0.0220351     0.0189206   -0.00880652   -0.00271065   -0.00156835  -0.000571042   0.000224323   0.000466554   0.000635623
     0.189252      0.115856     0.0892795    -0.0183818     0.0151054   -0.00930224   -0.00166102   -0.00223269 -1.84473e-005   0.000184389   0.000108525  8.88642e-005
     0.175999     0.0982675     0.0754193    -0.0106217    0.00900383    -0.0118847   -0.00275528  -0.000817328   0.000634538 -5.00394e-005 -7.78667e-005    0.00031429
     0.167441     0.0950443     0.0778269    -0.0057307    0.00900904    -0.0123491   -0.00370519   0.000283662  -0.000101656  -0.000314904   0.000664217   0.000709759
     0.162116      0.100793     0.0824283   -0.00270208    0.00869246    -0.0134923   -0.00371288    0.00102594  -0.000306046  -0.000186409   0.000227376   0.000508241
     0.156223      0.105806     0.0804086   -0.00577063    0.00938644    -0.0144314   -0.00406023   0.000394927   0.000118672  -0.000538139   0.000238171  -0.000173233
     0.159513      0.114545     0.0877976   -0.00748774     0.0100581    -0.0139514   -0.00460193   0.000336249 -7.14258e-005  -0.000409064  -0.000196189  -0.000365352
     0.155656      0.119545     0.0863858   -0.00868835     0.0113921    -0.0138587   -0.00343328  -0.000487125   0.000459082  7.42057e-005  -0.000520489    0.00012136
     0.154521      0.120393     0.0860669   -0.00869759     0.0133872    -0.0128153   -0.00359464  -0.000901799   0.000358015   0.000357401   0.000148256   0.000414333
     0.154303      0.120017     0.0860627   -0.00475464     0.0133563    -0.0126498   -0.00457046   0.000381652   0.000458401  7.13204e-005  -0.000527495   0.000118153
     0.147153      0.121239     0.0879552   0.000771685     0.0142511    -0.0131555   -0.00304843   -0.00167628   0.000345234   0.000362734   0.000156766   0.000413481
     0.143143      0.124119     0.0835316    0.00135841     0.0161751    -0.0122428   -0.00324322   -0.00239377   -0.00012786   0.000474616   0.000777896   0.000365374
     0.149352      0.127564     0.0858893   -0.00143055     0.0176713    -0.0127758   -0.00268806   -0.00372317   0.000402715 -7.18464e-005   0.000977807   0.000483153
     0.147167      0.123452     0.0865614  -0.000628265      0.015573    -0.0127583   -0.00342454   -0.00337508 -1.26967e-005    0.00019621   0.000115946  8.13956e-005
     0.138763      0.122473     0.0801224  -0.000426983     0.0130625    -0.0148494   -0.00388908   -0.00319839 -6.59624e-005  -0.000304567   0.000679345   0.000727115
     0.138453      0.128489      0.081072   -0.00397495     0.0129038    -0.0148786   -0.00192458    -0.0025295 -7.17526e-005   0.000977361   0.000215719  -0.000288284
     0.128837       0.12888     0.0792004  -0.000769833     0.0116966     -0.013602   -0.00352301    -0.0029902  -0.000119741   0.000135095  -0.000130452   0.000669124
     0.121938      0.129674     0.0860534    0.00152355     0.0126155    -0.0153584    -0.0038596   -0.00251037   -0.00047755 -4.27743e-005  -0.000188038   0.000327803
     0.121239      0.127249     0.0877796    0.00175522     0.0112865    -0.0159845   -0.00152797   -0.00265853   0.000177897  5.95183e-005   0.000545526   0.000271264
     0.115697      0.125096     0.0849964    0.00278828    0.00981001    -0.0160513   -0.00215243   -0.00401135  8.22558e-005   6.4943e-006    0.00030935   0.000868231
     0.110609      0.125186     0.0915584     0.0078774    0.00957133     -0.017774   -0.00218413   -0.00207304   0.000379797  -0.000160518   0.000122051  -0.000619964
     0.115322      0.123147     0.0936438    0.00663375     0.0064842    -0.0189504  -0.000507456   -0.00288213  -0.000779613   -0.00015173  2.07369e-005   -0.00061419
       0.1206      0.121006     0.0934489  -0.000221171    0.00320399    -0.0196393  -0.000251738   -0.00216255  -0.000668875  -0.000351806   0.000199764   0.000177534
     0.125044       0.12261      0.103241  -0.000624311    0.00322579    -0.0179145    0.00105426   -0.00289787  -0.000414036  1.71313e-005  7.33641e-005  -0.000267614
     0.128985      0.121613      0.119074    0.00214877    0.00257817    -0.0166726   0.000177814   -0.00314279 -3.31399e-005   0.000188936    0.00012409  7.93001e-005
     0.126039      0.124674      0.131903     0.0030465    0.00134633    -0.0172294   0.000168263   -0.00168838   0.000652852 -6.37135e-005  -7.4232e-005   0.000327799
     0.134663      0.137287      0.145925  -0.000223054    0.00184592    -0.0173542    0.00179538  -0.000388106   0.000183958  2.82193e-005   0.000530246   0.000282003
     0.133172      0.140112      0.151222   0.000636139    0.00444191    -0.0158927 -2.07823e-005   -0.00263732    0.00042324  -0.000440707   5.6727e-005   0.000800488
     0.127197      0.137954       0.15035  -0.000802693      0.004919    -0.0149586    0.00127552   -0.00296298  -0.000379232 -1.84147e-006  6.40399e-005  -0.000242156
     0.118443      0.135525      0.162298    0.00770085    0.00594831    -0.0169911    0.00119273   -0.00289676   0.000514324  -0.000378398     0.0003059   0.000205806
     0.106669      0.135937      0.169536     0.0137659    0.00742868    -0.0169919  -0.000514303   -0.00346334  -0.000150409  -0.000133735   0.000492625 -4.14308e-005
    0.0916205      0.128919      0.161931     0.0189022    0.00456361    -0.0182754  -0.000806155   -0.00216404     0.0007767  -0.000348649  -0.000744687  4.51654e-005
    0.0828393      0.126554      0.176951     0.0216679    0.00318068    -0.0193584   -0.00223158   -0.00260539   0.000587484   0.000129443   -0.00026171  -0.000455287
    0.0738311      0.114533      0.182796     0.0243738   0.000190054    -0.0197127   -0.00139448   -0.00146151  -0.000315837   0.000587941    0.00034213   0.000170158
    0.0581719     0.0899327      0.178987     0.0388621   -0.00309776    -0.0226526   -0.00381172  -0.000927251   0.000130628  -0.000539034   0.000251044   -0.00017232
    0.0600929     0.0950808       0.19118     0.0359076  -0.000295081    -0.0210184   -0.00260331   -0.00251316  -0.000312138   0.000255528  -0.000562507   0.000471726
    0.0601704     0.0994402      0.190679     0.0316139   -0.00213978     -0.020483  -0.000786024   -0.00157246  -0.000230718   0.000310733  -0.000318811  -0.000125288
    0.0590118     0.0973394      0.190344     0.0310223   -0.00246766    -0.0207992    -0.0013176   -0.00149369 -1.86555e-005   0.000177502   0.000110308   7.2783e-005
     0.060658     0.0957347      0.192131     0.0281151   -0.00134705    -0.0210236  -0.000831201    -0.0019322   0.000297674  -0.000237808  -0.000125364  -1.3492e-005
    0.0559027     0.0860983      0.186685     0.0351444   -0.00270982    -0.0207924   -0.00287765   -0.00218956   0.000130305  -0.000536194   0.000259906   -0.00016225
     0.055711      0.073746      0.186805     0.0404592    -0.0070518    -0.0223227   -0.00244065   -0.00151869    0.00125797  -0.000539235   0.000373705  -0.000178282
     0.061249     0.0773328      0.194075     0.0373901   -0.00703084     -0.021987   -0.00242165   -0.00175486  2.21166e-005  -0.000599036  1.44931e-005   0.000427689
    0.0512726     0.0859138      0.196535     0.0340957   -0.00150494    -0.0192752   -0.00242525   -0.00167355   0.000352606   0.000354542   0.000161763   0.000413814
    0.0400322     0.0915231      0.198037     0.0320973   0.000859579    -0.0182008   -0.00289668  -0.000518285   0.000299393  -0.000243018  -0.000137594 -1.71111e-005
     0.033401     0.0869997      0.203811     0.0403204    0.00276603     -0.017454   -0.00444009    -0.0013468   0.000420065    0.00085617  -0.000409382  -0.000236649
    0.0313489     0.0730381      0.205444     0.0440257    0.00268482    -0.0175547   -0.00548978   -0.00151079   0.000675906 -5.75907e-005 -8.03297e-005   0.000321986
     0.042627      0.064005      0.207237     0.0406051   -0.00278078    -0.0162663    -0.0064546  -0.000776153   0.000462901  7.54456e-005  -0.000511192   0.000118581
      0.04221     0.0527574      0.204278     0.0437638   -0.00596175    -0.0174066   -0.00552788  -0.000725833  7.07104e-005 -9.35668e-005  -0.000555014  -0.000230189
    0.0372178     0.0482817      0.192008      0.039732   -0.00795939    -0.0179427     -0.006844   -0.00149754  -0.000602709   0.000157154  -0.000362923  -0.000482816
    0.0355149     0.0380311      0.174046     0.0409589    -0.0107703    -0.0185006   -0.00799526   -0.00057867  -0.000140899   0.000140903    -0.0001297   0.000636045
    0.0310497     0.0190613      0.144852     0.0400032    -0.0184429    -0.0219102   -0.00834859  -0.000546928  -0.000129922  -0.000370083   -0.00015856  -0.000412391
    0.0333925     0.0108223      0.125139     0.0339102    -0.0225546    -0.0226267    -0.0085644   -0.00127703   -0.00013472  -0.000272858   0.000702654   0.000664258
    0.0419864     0.0212313      0.128488     0.0263065    -0.0197364    -0.0223663   -0.00797841  -0.000683512  8.37606e-005  -0.000502737   0.000271752  -0.000212774
    0.0479103     0.0255017      0.127015      0.020716    -0.0190625    -0.0220231   -0.00819048   -0.00121079   0.000625498   0.000322849   0.000856745 -3.02637e-005
    0.0486944     0.0224876      0.123999     0.0183922    -0.0209185    -0.0208954   -0.00786824   0.000281708   0.000821234  -0.000160598   0.000366173   0.000467236
    0.0500465      0.026465      0.122964     0.0152653    -0.0205936    -0.0216837    -0.0077156   -0.00040685   0.000625003 -2.54445e-005 -6.20044e-005   0.000272646
    0.0508297     0.0200245      0.112497     0.0160944    -0.0205851    -0.0213319   -0.00658493   -0.00120489   0.000663207   0.000572252    0.00023606   0.000700669
    0.0568662      0.027774      0.114692     0.0117082    -0.0173056    -0.0195094   -0.00623982    0.00019967   0.000502986   0.000252621   0.000602418   0.000561924
    0.0609724     0.0373576       0.11933    0.00796364    -0.0136986    -0.0195662   -0.00630949  -0.000772099  -0.000517822 -2.52941e-005  -0.000176591   0.000288984
    0.0588563     0.0222786      0.111075    0.00907226    -0.0177603    -0.0206607   -0.00626317   -0.00125172   0.000777851   0.000287001  -0.000435374   0.000417419
    0.0592045     0.0120786      0.106769     0.0121887    -0.0212394    -0.0216154   -0.00612565     0.0007926   0.000792783  -0.000244126  -0.000483317  -0.000624647
    0.0637726     0.0144908      0.104659     0.0127064    -0.0196995    -0.0205219   -0.00767314   -0.00125834   0.000450938  -0.000665905  -0.000585653   0.000433442
    0.0693196     0.0140929     0.0996414     0.0128077    -0.0196104    -0.0206733   -0.00809101   -0.00102131 -6.72465e-005  -0.000115971  -0.000780743    0.00032207
    0.0739167     0.0165693     0.0932817    0.00727974    -0.0187302    -0.0186132   -0.00734929  -0.000594114   0.000696729  4.56168e-005   0.000192332  -0.000327403
     0.081392     0.0253774     0.0973201   -0.00191988    -0.0181858    -0.0189376   -0.00806179   -0.00179202   0.000361743  -0.000128736   0.000142523  -0.000654475
    0.0864915     0.0238399     0.0909576   -0.00529419    -0.0187682    -0.0183616   -0.00761792  -0.000876606  -0.000265355   0.000355155  -0.000302593    -0.0001728
    0.0931133     0.0173373     0.0806788   -0.00752737    -0.0208207    -0.0201542   -0.00704984   -0.00048779   -0.00038961   -0.00073551 -2.54828e-005  4.08123e-005
     0.105349     0.0210724     0.0826968    -0.0110113    -0.0213305    -0.0190109   -0.00689263    -0.0017012     0.0005592  -0.000604358   -0.00033665   -0.00015356
     0.108877     0.0244297     0.0729496    -0.0167917    -0.0208797    -0.0176144   -0.00617655   -0.00167293   0.000283986  -0.000630314   0.000711773  -4.8755e-006
     0.115526     0.0121102     0.0670406    -0.0103501    -0.0211239    -0.0193725   -0.00665861   -0.00096021   -3.304e-005  -0.000555405  3.26299e-005   0.000379356
     0.124014    0.00816284     0.0557927    -0.0159636    -0.0223406    -0.0186258   -0.00649181   -0.00157184  -0.000665635    0.00019572  -0.000337652  -0.000523418
      0.13112    0.00706738     0.0404596    -0.0276342    -0.0268499    -0.0189781   -0.00454368  -0.000896646   0.000462841   0.000188766  -0.000225427  -0.000534206
     0.143276   -0.00246698     0.0407376    -0.0260096    -0.0279582    -0.0175221   -0.00481132  -1.9877e-005   0.000349652   0.000125288  -0.000474332  5.54783e-005
     0.156079     0.0106936     0.0396796    -0.0351617    -0.0241763    -0.0157956   -0.00400478  -0.000972759  -0.000478203  5.62349e-005  9.29514e-005   -0.00032143
     0.172094     0.0219576     0.0376868    -0.0425609    -0.0193328    -0.0127882   -0.00392407   -0.00241115 -8.64203e-005  -0.000113497  -0.000766532   0.000341257
      0.18611     0.0293445     0.0435745    -0.0455039    -0.0155646    -0.0110682   -0.00315352   -0.00200116   7.6497e-005    0.00052961  -0.000239038   0.000185038
     0.194915     0.0449134     0.0473009    -0.0522379    -0.0135571   -0.00984688   -0.00143798    -0.0022487   0.000327391  -0.000138999    0.00014988  -0.000630464
      0.20528     0.0515512     0.0443602    -0.0568005    -0.0102853    -0.0101449    -0.0023707   -0.00367189   0.000110441   0.000525752  -0.000237776   0.000207052
     0.216946     0.0698875     0.0556163    -0.0600268   -0.00443872   -0.00848161   -0.00261983   -0.00289255  7.20203e-005   0.000265556   0.000373803  -0.000516889
     0.226143     0.0802536     0.0595943    -0.0668127    -0.0010272   -0.00596037   -0.00195738   -0.00458264  3.74654e-005  -0.000581587  3.01929e-005   0.000459043
     0.236932     0.0702453     0.0576763    -0.0627273   -0.00397614   -0.00716151    -0.0015655   -0.00305832   0.000114562   -0.00052195   0.000272796  -0.000148894
     0.243162     0.0573743     0.0519309     -0.053573   -0.00839568    -0.0101382   -0.00230474  -0.000666676  -0.000523892 -3.69652e-005  -0.000177356   0.000314373
     0.236351     0.0352151     0.0322783    -0.0436143    -0.0111409   -0.00915463   -0.00231817  -0.000763011   0.000362729   0.000451518   0.000432556  -0.000213308
     0.240779     0.0301908     0.0242778    -0.0378562    -0.0118436   -0.00846621   -0.00398351   -0.00102702  -0.000378766  -0.000232464  -0.000577181  -0.000594283
     0.251475     0.0395872     0.0302664    -0.0434867    -0.0122478   -0.00803959    -0.0036526   -0.00128167  -0.000142232   0.000659643  -0.000671502 -1.32912e-005
     0.259315     0.0511192     0.0351441    -0.0508498   -0.00919653   -0.00677935    -0.0027848    -0.0010782 -8.51823e-005   0.000209047   0.000131981  5.45427e-005
     0.265472     0.0617223     0.0391125     -0.058257    -0.0075147   -0.00516846   -0.00238099   -0.00228581   0.000356445   0.000885313  -0.000377443  -0.000243005
     0.274519     0.0645428     0.0444626    -0.0593245   -0.00815351   -0.00544198   -0.00239954  -0.000675759  -0.000224155  -0.000454266  -0.000410752    0.00023009
     0.275839     0.0635335     0.0349859    -0.0639266   -0.00945538   -0.00561088   -0.00298816   -0.00252126  -0.000263853   0.000342583   -0.00029413  -0.000128369
     0.274801     0.0616934     0.0261916    -0.0658096    -0.0114618   -0.00607229   -0.00192633   -0.00166606   0.000229363   0.000136053   0.000812514  -0.000333435
     0.278494     0.0655094     0.0259576    -0.0672179    -0.0120485   -0.00567352    -0.0012794  -0.000450403  -0.000243357  -0.000451475  -0.000406395   0.000223207
      0.27885     0.0675757     0.0189468    -0.0710312    -0.0109649   -0.00511768   -0.00289832  -0.000909129  -0.000906968  -0.000206429  -0.000220606  -2.4232e-005
      0.28593     0.0670008     0.0211519    -0.0701843    -0.0121033   -0.00470075  -0.000524272   -0.00129192  -0.000624747   -0.00027757   0.000465275  -0.000418886
     0.281868     0.0607861     0.0150865    -0.0681837     -0.013794   -0.00612207   0.000298805   -0.00177523   0.000368215    0.00010243  -0.000473583   0.000108916
     0.281578      0.053627    0.00571537    -0.0681485    -0.0156059   -0.00659437   -0.00252337    -0.0020674   0.000589492 -2.29257e-005  -4.1633e-005   0.000302852
     0.283221     0.0541493    0.00553781    -0.0670118    -0.0140611   -0.00581518   -0.00183578   -0.00178189  -0.000160131  -0.000372742  -0.000143526  -0.000378312
     0.283202     0.0569607    0.00767327    -0.0684629    -0.0144755    -0.0065742   -0.00205376   -0.00231503   0.000379683   0.000453837   0.000442612  -0.000198368
       0.2893     0.0635159     0.0102984    -0.0732108    -0.0134671   -0.00665113  -0.000806184   -0.00207857   0.000126125  -0.000266349  -0.000342418   0.000565269
     0.294122     0.0720584     0.0128511    -0.0788666    -0.0106495   -0.00519352   0.000372229   -0.00137588  -0.000183291    0.00013956  -0.000113869   0.000661277
     0.291209     0.0747359     0.0139685    -0.0801578   -0.00882493   -0.00508453   -0.00052936   -0.00310799  -0.000325151  -0.000161209   0.000273784   0.000529503
     0.289072     0.0744208      0.016455    -0.0774788   -0.00637996    -0.0045765  5.89259e-005   -0.00337525   0.000133915 -1.07283e-005  -0.000278043  -0.000806071
     0.291829     0.0695652     0.0154801    -0.0746897   -0.00832047   -0.00744631  -0.000673409   -0.00200958  -0.000386292  -0.000753756 -2.12915e-005  9.01602e-005
     0.286383     0.0585436    0.00563394    -0.0668371    -0.0103547    -0.0077837   -0.00260357  -0.000891817   0.000541319  -0.000620793  -0.000343359  -0.000129228
     0.285564     0.0562999    0.00422866    -0.0639834     -0.011247   -0.00701357   -0.00198643   -0.00112233 -3.15142e-005   0.000458704  -0.000491015   0.000786102
      0.28804     0.0599596    0.00843075    -0.0625643    -0.0100626   -0.00637513   -0.00250113   -0.00145367   0.000124143  -0.000264838  -0.000347338   0.000558725
     0.294901     0.0631636    0.00954669    -0.0688547   -0.00981455   -0.00613782   -0.00116307  -0.000733592    0.00059038 -3.62354e-005 -5.58528e-005   0.000306082
     0.299916     0.0686733     0.0109096    -0.0766427   -0.00942069   -0.00666638   -0.00126279  -0.000720255  -0.000184429  -0.000892012   0.000401625   0.000283412
     0.306845     0.0758327     0.0182525      -0.07711   -0.00792081   -0.00547817  -0.000450154   -0.00101247  -0.000537306 -3.90289e-005  -0.000171593   0.000323955
     0.309656     0.0772625     0.0213397    -0.0814013   -0.00977615   -0.00493016    0.00104559   -0.00136859  -0.000609704  -0.000285585   0.000460347  -0.000408426
      0.30426     0.0705388     0.0098821    -0.0754789    -0.0106534   -0.00584633  6.66399e-005  -0.000688164 -4.09062e-005  -0.000584736  2.61819e-005   0.000423815
     0.299545     0.0699396    0.00896954    -0.0702643   -0.00824618    -0.0044191  -0.000360838   -0.00165735   0.000423972  -0.000342369   0.000330931    0.00017229
     0.289804     0.0765479    0.00770792    -0.0710026   -0.00350211   -0.00490624   0.000981647   -0.00166436  -0.000353823  -0.000166511   0.000266099   0.000520446
     0.290388        0.0706     0.0102846    -0.0678267   -0.00617201   -0.00530667   0.000638156    -0.0013533  -0.000158751  -0.000384924  -0.000152924  -0.000368815
      0.29074     0.0722237     0.0142489    -0.0691526   -0.00493228   -0.00347448 -5.51105e-005   -0.00161454  -0.000771909    0.00044549   0.000320149    -0.0001824
     0.291133     0.0744356    0.00875476     -0.074426   -0.00585363   -0.00366914    0.00049931    -0.0026188   0.000320405  -0.000145151   0.000151286  -0.000613663
     0.295727     0.0732731    0.00222901    -0.0813179   -0.00884321   -0.00407178    0.00223137   -0.00249994  -0.000157521  -0.000295807    0.00070785   0.000722018
     0.292528     0.0749365   -0.00259658    -0.0807008    -0.0070605    -0.0024686    0.00284835   -0.00116393  8.59655e-005  6.81851e-005   0.000567282   0.000263229
     0.295857     0.0675996    -0.0010815    -0.0793554   -0.00999797   -0.00322333   0.000836533  -0.000531396  -0.000541361  -0.000560683  -0.000204959  -0.000713014
      0.29742     0.0667534   -0.00257944    -0.0814648    -0.0102848   -0.00312004   0.000812464   0.000317984  3.90378e-005  -0.000868556  -0.000644327   0.000128958
     0.296173     0.0700143 -7.64966e-005    -0.0814554   -0.00873028     -0.004909    0.00253804  -0.000118156   0.000196924  -0.000217981  -0.000108563 -3.22068e-005
     0.297939     0.0683236    0.00332831    -0.0802702   -0.00878319   -0.00379573    0.00159063   0.000239675  -0.000372392  -0.000173693   0.000258425   0.000511623
     0.301014      0.066266    0.00374352    -0.0800136    -0.0108649   -0.00419641    0.00200314  -0.000569463  3.27341e-005  -0.000522345   0.000277086  -0.000172465
     0.301965     0.0698683   0.000786972    -0.0811397    -0.0112685   -0.00401576    0.00161079  -0.000356855  -0.000270645  -0.000451771  -0.000402254   0.000222746
     0.301468     0.0702288   0.000838185    -0.0781294   -0.00994043   -0.00345083   0.000978741    0.00117087  -0.000116825   0.000193403   0.000120743  5.25995e-005
     0.298262     0.0669845    0.00101039    -0.0763323    -0.0101287     -0.006118    0.00112669 -4.91571e-005  -0.000477494  2.65158e-005  7.76322e-005  -0.000286548
     0.299977     0.0645791    0.00159907     -0.073717    -0.0105005   -0.00550247 -3.70326e-006  2.17537e-005  -0.000105322   0.000202022   0.000127983   5.2529e-005
     0.297718     0.0692985    0.00597414    -0.0719254   -0.00928794   -0.00330277  2.34652e-006   -0.00107753   0.000106322  -0.000272767   -0.00034795   0.000565253
     0.301765     0.0732753     0.0112139    -0.0711722   -0.00865185    -0.0037586  -0.000580122   -0.00111718  -0.000315066  -0.000694242   0.000225967   -0.00050842
     0.307885     0.0775834     0.0151664    -0.0733864   -0.00742217   -0.00275718  -0.000358439   -0.00127677   0.000223811  -0.000215633  -0.000104668 -2.05878e-005
     0.304258     0.0899286     0.0162932    -0.0779673   -0.00283066   -0.00216349  -0.000903373   -0.00209725   0.000823188  -0.000263313  -0.000477564  -0.000552695
     0.309063     0.0855417     0.0150637    -0.0770614   -0.00565253   -0.00196306   0.000413189   -0.00161924  6.42455e-005  -0.000525661   0.000275617  -0.000155693
     0.311236     0.0791017     0.0113832    -0.0793086    -0.0100915   -0.00221179    0.00183155    -0.0024703  -0.000260382  -0.000447419  -0.000388854   0.000238615
     0.311043     0.0793218     0.0108932    -0.0824049    -0.0104216   -0.00348087    0.00130651   -0.00218495   0.000428435  -0.000346857   0.000334033   0.000182548
     0.308355      0.080583    0.00563475    -0.0844976    -0.0109889   -0.00429577    0.00228353   -0.00160336  -0.000157937  -0.000389388  -0.000149541  -0.000361234
     0.299987     0.0777801    0.00324459    -0.0775724   -0.00702298   -0.00379332   0.000555044   -0.00203319  5.69206e-005  -0.000517675   0.000281111  -0.000162737
     0.297517     0.0761415    0.00396165    -0.0759217   -0.00854776   -0.00456816  5.17545e-005   -0.00142579  -0.000411845   -0.00075516 -1.98409e-005  8.70134e-005
     0.297459     0.0766502   -0.00233279    -0.0781521    -0.0073822   -0.00512158   0.000312944   -0.00246105  -0.000717967   -0.00033405    0.00022297   0.000180482
     0.303025     0.0796461   0.000573331    -0.0778169   -0.00435256   -0.00408601   1.6342e-005   -0.00338387  -0.000337113  -0.000158322   0.000276525   0.000529149
     0.313395      0.102865     0.0119941    -0.0941819   -0.00237335   -0.00153883    0.00253436   -0.00335579   0.000414392  8.69773e-005  -0.000480779   0.000147071
     0.315709      0.119199     0.0207894    -0.0991583      0.002938  -0.000818199    0.00232564   -0.00531544  -0.000391403  2.04102e-005  8.84041e-005   -0.00022332
     0.319153      0.123965     0.0244526     -0.102218    0.00364496    -0.0013855    0.00142778   -0.00542645  -0.000369137  1.78561e-005  8.38754e-005  -0.000218408
     0.319165      0.122775      0.025054     -0.102939    0.00252925   -0.00225073    0.00286727    -0.0037131  -0.000276815  -0.000186905   0.000257894   0.000567731
      0.31651      0.121425     0.0177221     -0.104835    0.00353155   -0.00102721    0.00339935   -0.00454064  7.93979e-005 -9.34097e-005  -0.000534924  -0.000173138
     0.321423      0.118656     0.0167863     -0.103466   0.000660583  -0.000785674   0.000974624   -0.00355048 -7.57241e-005  -0.000402041  -0.000161243  -0.000321066
      0.31257     0.0853754    0.00953158    -0.0838358   -0.00544624   -0.00362125    0.00022327   -0.00153286   0.000607676   0.000299092   0.000855658  2.07982e-005
     0.292066     0.0165211     -0.019072    -0.0455816    -0.0216312   -0.00994123   -0.00296623    0.00173502    -0.0002297  -0.000363381  -0.000147112   -0.00042715
     0.283344   -0.00843744    -0.0276668    -0.0289145    -0.0282378    -0.0122918   -0.00392575    0.00216652   5.1173e-005    0.00061065  1.84091e-005  -0.000474459
     0.292186     0.0318381   -0.00940339    -0.0473344    -0.0162981   -0.00832359   -0.00273962   0.000329433  -0.000418344   0.000111943   0.000338409  -0.000913846
     0.305694     0.0603556    0.00772946    -0.0614713    -0.0106499   -0.00534372   -0.00176419  -0.000393491   0.000575581 -3.39938e-005 -5.33362e-005   0.000300436
     0.307615     0.0820176     0.0145636     -0.073289    -0.0077788   -0.00387567   -0.00124277   -0.00241719   0.000339456  -0.000148192   0.000147702  -0.000611187
     0.301739     0.0867495    0.00643524    -0.0748682   -0.00362425   -0.00240278  -0.000488226   -0.00435244  -0.000538899 -2.24561e-005  -0.000147953   0.000337814
      0.29421     0.0751609   -0.00517975     -0.071899    -0.0063167   -0.00427849  -0.000430634   -0.00150338 -9.76603e-005   0.000208476   0.000135555  6.03368e-005
     0.294455     0.0660563   -0.00802094    -0.0693689   -0.00852903   -0.00659158  -0.000350322   -0.00150907     0.0010463   0.000207369   0.000249513  4.88288e-005
     0.294354     0.0568543    -0.0128308    -0.0691644    -0.0109866   -0.00641571   -0.00177728   -0.00169668    0.00037051   0.000111375    -0.0004747  9.97901e-005
     0.297718     0.0640225    -0.0118565    -0.0748141   -0.00885431   -0.00427349   -0.00198591  -0.000904613   0.000525169  -0.000619935  -0.000340584  -0.000127533
      0.30034     0.0613544    -0.0111446    -0.0758613    -0.0109923   -0.00530255  -0.000681356  -0.000807595  9.54361e-005 -8.89584e-006  -0.000284895  -0.000833409
     0.301813     0.0571226    -0.0143416    -0.0746581    -0.0138337   -0.00442733   -0.00173173   -0.00131406  -0.000110499   0.000217161    0.00014252   4.9118e-005
     0.298579     0.0673659   -0.00742442    -0.0757855   -0.00894803     -0.003292   -0.00138846    -0.0014668 -5.31236e-005  -0.000660192  -0.000817222  -0.000661428
     0.302206     0.0771099    -0.0028951     -0.077778   -0.00424799   -0.00400311   -0.00097668   -0.00179044  -0.000648563   0.000251951   0.000501558   0.000611628
     0.303227     0.0874251   0.000826478    -0.0798038   -0.00196957   -0.00267375   -0.00140005   -0.00395975   -0.00021862 -9.58101e-005   0.000522343 -5.81506e-005
      0.30679     0.0944873     0.0114135    -0.0769148    0.00159428   -0.00284639  -0.000753325   -0.00455651   0.000429012   0.000100736  -0.000474829    0.00014331
     0.325128     0.0914496     0.0242264    -0.0677784    0.00228692   -0.00216068  -0.000182484   -0.00235579   0.000567982    0.00074028  4.72882e-005 -2.76178e-005
     0.345153     0.0912994     0.0389999    -0.0568273    0.00497609   -0.00221316  -0.000601935   -0.00101749  -0.000434295  1.36248e-005  6.92534e-005  -0.000256868
     0.368015      0.111294     0.0652755    -0.0453164     0.0158843   0.000142983    -0.0021206   -0.00251893   0.000244567   0.000207252   -0.00093061 -3.93009e-005
     0.393977      0.131848     0.0917769    -0.0347037     0.0256789    0.00254736  -0.000287967   -0.00346223  -0.000431829  -0.000850879   -0.00028472    0.00074864
     0.430836      0.165748      0.110786    -0.0373526     0.0327454      0.002962   0.000944359   -0.00410269   0.000277225  -0.000850531  -0.000415658  -0.000364914
     0.466789      0.192047      0.124954    -0.0292304     0.0403084    0.00341152    0.00107661   -0.00224865   0.000417259 -3.66564e-005  -0.000776846   0.000809573
     0.493895      0.208278      0.156949  -0.000588191     0.0503131    0.00377863   -0.00113827   -0.00102023    0.00011216  -0.000666139 -3.36159e-005   0.000532757
     0.508221      0.230711      0.195287     0.0224632     0.0570832    0.00337714    -0.0021088  -0.000348128    0.00056206 -4.69486e-006  -0.000560184   0.000232047
     0.501457      0.257414      0.212554     0.0392522     0.0626156    0.00340647   -0.00233444  -0.000792493  -0.000575327 -5.38142e-006  -0.000673512   0.000245829
     0.480275      0.284941       0.22293      0.053137     0.0716163    0.00237238   -0.00456051   -0.00295058   0.000107358   0.000627557  9.57882e-005    0.00123233
     0.460817      0.299363      0.235155     0.0682258     0.0781965   0.000563913   -0.00582341   -0.00148956   0.000266693  -0.000192354  -0.000630226 -8.56471e-005
     0.438462       0.32296      0.247538     0.0810941     0.0800558   -0.00364554   -0.00532791   -0.00379528   0.000448025   0.000464183 -8.55046e-005    -0.0002397
     0.377023      0.346444      0.253803     0.0856412     0.0827458   -0.00425116   -0.00584599   -0.00290431   0.000249663  -0.000700392 -7.00215e-005    0.00057689
     0.279075       0.35134      0.233416     0.0883931     0.0773199   -0.00821783   -0.00772179   -0.00283146 -6.89895e-006    0.00023032  -0.000396772  -4.9586e-006
     0.159448      0.359658      0.177753      0.073686     0.0580346    -0.0146138    -0.0079181   -0.00344611  -0.000297896  -0.000115094  -0.000245709   0.000414751
    0.0404382      0.386352      0.122772     0.0675131      0.047467    -0.0166359   -0.00980776   -0.00122398    0.00034101 -9.15534e-005  -0.000375976  -0.000760329
    -0.108593      0.400219     0.0605414     0.0684115      0.037406     -0.019865    -0.0123209  -0.000100164   0.000469114   0.000322696  9.71482e-005   0.000421532
     -0.26142      0.405358     0.0106876     0.0566438     0.0301608    -0.0217647    -0.0141752    0.00149648   0.000546304   0.000396521   0.000335766   -0.00020665
    -0.383711       0.40935   -0.00521382      0.052293      0.029833    -0.0228159    -0.0147804   0.000169652   0.000599551  -0.000375742   0.000237062   0.000150828
    -0.535569      0.397987    -0.0057019     0.0403062     0.0290103    -0.0241906    -0.0124518   -0.00119902   0.000240703   0.000490282  -0.000332163    0.00018207
    -0.709917      0.384597    -0.0231973     0.0178352     0.0215986    -0.0246731    -0.0121951   0.000630771  -0.000255595  -0.000775766  -0.000120821  4.25791e-005
    -0.924478      0.371646    -0.0573271      0.002693     0.0140182    -0.0280598   -0.00972017   0.000794805   0.000749008  -0.000483477   0.000660656   0.000298735
      -1.1505      0.359918    -0.0718618    -0.0134571     0.0153799    -0.0276674     -0.010132   0.000707617   0.000970835   0.000337136  -0.000293277  -0.000223652
     -1.37612      0.359269    -0.0995557    -0.0339625     0.0163789    -0.0287948   -0.00938809  -0.000457448    0.00108374    0.00015531  -0.000112242   0.000561149
     -1.62515      0.380662      -0.14583    -0.0549757      0.013227    -0.0287982   -0.00741014   0.000804057   0.000635309   0.000427396  -0.000984621   0.000138385
     -1.89802      0.390246     -0.196951    -0.0878337    0.00285435    -0.0267268   -0.00659695   0.000565427    0.00044069   0.000136434  -0.000601563    -2.51e-005
     -2.16716      0.411255     -0.246309     -0.114703    0.00223154    -0.0285504   -0.00289852  -0.000248243  -0.000378219  -0.000702526   -0.00013975 -6.94374e-005
     -2.38071      0.416856      -0.25857     -0.127327    0.00349215    -0.0286443   -0.00102304    0.00192152  -0.000484433    0.00060332 -1.89217e-005   0.000575934
     -2.54857      0.383993      -0.23855     -0.125822    0.00650552    -0.0289574    0.00151831    0.00224331   0.000221406  -0.000421052  -0.000314698    0.00118023
     -2.66901      0.353152      -0.21472     -0.127858     0.0195072    -0.0333805    0.00431955    0.00143578  7.35145e-005  -0.000470485   0.000115918  -0.000344401
     -2.76895      0.335169     -0.174613     -0.133042     0.0278161    -0.0303463    0.00321906    0.00187643    0.00037594  -0.000111975 -3.87634e-005  -0.000782913
     -2.86603      0.299949     -0.106455      -0.12194     0.0345222     -0.022272     0.0041593   0.000462424   0.000479471  -0.000310742   0.000149361  3.45945e-005
     -2.99617      0.264261    -0.0407064      -0.13088     0.0493256    -0.0162728    0.00426201   -0.00073365   0.000484637   0.000464084   0.000235243  -0.000294719
     -3.06548      0.208644     0.0599457     -0.141534     0.0633727   -0.00640187    0.00433091   -0.00249673   0.000908934  -0.000753008  -0.000118354  2.98232e-005
     -3.06798      0.115103      0.170928     -0.123224     0.0701312    0.00299113    0.00261861   -0.00244261  -0.000169406  -0.000166567  5.26579e-005    0.00049055
     -3.08857     0.0388694      0.216887     -0.110239     0.0738659     0.0112663   0.000687379   -0.00200822  6.45273e-005   0.000209509 -7.80102e-005  3.76886e-005
     -3.07687    -0.0286442      0.217785     -0.117305     0.0691734     0.0168158   -0.00051391   -0.00208281   0.000382458  -0.000631111   0.000509268 -4.28493e-006
     -3.00792     -0.106438      0.228557     -0.129606     0.0647299     0.0263869  -0.000499132  -0.000846891  -0.000543623   0.000780593  -0.000249953 -8.46337e-005
     -2.83876     -0.208919      0.294818     -0.117266     0.0701772     0.0314572   -0.00144428   -0.00171592  -0.000184387  -0.000415447   -0.00057834   0.000206155
     -2.70079     -0.330972        0.2705    -0.0938288     0.0499857     0.0300287   -0.00501685    0.00126667  -0.000297991  -0.000380722   -0.00055285   0.000141449
     -2.57067     -0.506838      0.116238    -0.0718979   -0.00190931     0.0199452    -0.0117284    0.00758127   0.000129368  -0.000192909   0.000227861 -8.01762e-005
      -2.3342     -0.640884   0.000968442    -0.0700042    -0.0353448    0.00595669    -0.0144641    0.00877478   0.000311506   -0.00053943  4.47002e-005   -0.00026758
     -2.03016     -0.714672    -0.0242742    -0.0886847    -0.0403409    0.00317262    -0.0132834     0.0088745  -6.5489e-005   0.000672814   0.000402359  -0.000545868
      -1.6612     -0.807839    0.00705601    -0.0915644     -0.034107   -0.00604755    -0.0110856    0.00665478   -0.00106071   0.000489166   0.000491369   0.000273642
     -1.38948      -0.88739    -0.0299313     -0.092562    -0.0450433    -0.0172265   -0.00823779    0.00828991  -0.000806118  8.95999e-005   0.000271847   0.000146151
     -1.10326      -0.93161    -0.0501179    -0.0946301    -0.0529989    -0.0245764   -0.00814707    0.00643889  -0.000395252  -0.000244798    0.00031213  -0.000542342
    -0.757797     -0.942867     -0.053139     -0.091268    -0.0459276    -0.0301092   -0.00703117    0.00483873  -0.000829703  -0.000482479  2.79117e-005  -0.000266819
    -0.441389     -0.950833    -0.0580594    -0.0900116    -0.0326736    -0.0279197   -0.00606493    0.00572868  6.61936e-005  -0.000872969    0.00026737   0.000201676
   -0.0605595     -0.952932     0.0211771    -0.0785208   -0.00379683    -0.0250652   -0.00441164    0.00502454  6.54439e-005   0.000313401     -0.000459   -0.00014953
     0.266619     -0.975033     0.0539082    -0.0539542     0.0140811    -0.0292453   -0.00305829    0.00450707   0.000142361  -0.000140417   0.000350768 -6.67454e-005
     0.525357     -0.972978     0.0697598    -0.0455527     0.0251457    -0.0324781   -0.00310655    0.00371643   0.000191385  -0.000151484    0.00034909 -4.14956e-005
      0.73043     -0.931603      0.101387    -0.0526743     0.0397157    -0.0290086   -0.00127434     0.0019209   0.000633094   -0.00034739  -0.000519343   0.000659025
     0.878181     -0.892114      0.102675    -0.0526725     0.0509239    -0.0255129  -0.000676787    0.00320746  -0.000446359   0.000481359  -0.000296256  -0.000273373
      1.05208     -0.863456       0.10075    -0.0572724     0.0575136    -0.0240078  -0.000195074    0.00208593  -0.000109737   0.000399888   0.000384564  -0.000642667
      1.18091     -0.838915     0.0749842    -0.0644795      0.061556    -0.0299997    0.00157124    0.00215838   0.000642668  -0.000634093   8.9909e-005 -2.54562e-005
      1.23414     -0.793625      0.015098    -0.0762398     0.0636187    -0.0322251  -0.000123193    0.00245724   0.000192167  -0.000868388  -0.000213262   0.000222574
      1.23979     -0.751764    -0.0373685    -0.0975257     0.0573035    -0.0287923  -0.000710732    0.00273006   0.000712365  -0.000385256  -0.000539244   0.000700169
       1.2072     -0.705034    -0.0445609     -0.108746     0.0579904     -0.021248   -0.00318334    0.00201432   0.000318084    0.00022013  -0.000488057  1.55938e-005
      1.16414     -0.634675    -0.0318859     -0.114083     0.0686776    -0.0137361   -0.00422623    0.00240491   3.5391e-005  -0.000420788   0.000250203  -0.000236812
      1.11005     -0.571314    -0.0329665      -0.12401     0.0790202   -0.00856103   -0.00237073    0.00141422    0.00079982 -8.88891e-005   0.000342641   0.000472476
      1.08046     -0.537336    -0.0430307     -0.134002     0.0756217   -0.00468816    -0.0023335    0.00256866   0.000635539  -0.000751673  -0.000199102   0.000638686
      1.04026      -0.49854    -0.0565941     -0.145918     0.0722846    -0.0040967   -0.00271286    0.00163787    0.00118438   7.2512e-005   0.000387278   0.000823449
     0.981564     -0.441233    -0.0526825     -0.148248     0.0685455   -0.00343295   -0.00355071    0.00339496   0.000774593  -0.000711107  3.08753e-005  5.51342e-005
     0.920776     -0.410794    -0.0365555     -0.127892     0.0618154   -0.00287795   -0.00541656    0.00448112  -0.000228033 -5.97954e-005   0.000451346  -0.000112877
     0.834894     -0.394039    -0.0261313     -0.102188     0.0493472    -0.0087812   -0.00627205    0.00423986    0.00069458  7.72512e-005   0.000144036    -0.0003364
     0.774247     -0.372081    -0.0106367    -0.0917974     0.0378159     -0.010765   -0.00577362    0.00690734   0.000201303  -0.000173002  -0.000163848 -9.86193e-005
     0.742649     -0.330659   -0.00534812    -0.0913673     0.0272809    -0.0101522   -0.00452715    0.00469166 -1.67621e-005   0.000308062    0.00034226   -0.00059226
     0.704045     -0.260221    -0.0208357      -0.09436      0.014315    -0.0115617   -0.00244792    0.00447118  -0.000649281    0.00078802 -8.88249e-005  -0.000106565
     0.659434      -0.19359    -0.0404839    -0.0958247     0.0111202    -0.0130346   -0.00365474    0.00593329   0.000305625  -0.000386689  3.60849e-005   0.000701921
     0.592306     -0.151339    -0.0583855    -0.0883792     0.0116621     -0.014032   -0.00472795    0.00370915  -0.000265856 -7.18351e-005   0.000481812  -0.000140004
     0.527111      -0.12266     -0.058445    -0.0761858      0.011507    -0.0158479   -0.00521527    0.00394619   0.000267806   0.000407635   0.000148346   0.000336439
      0.50348    -0.0944548    -0.0347689    -0.0683875     0.0187147    -0.0157194   -0.00300439    0.00380799   0.000491335 -8.45517e-005  -0.000343245    0.00085629
     0.479654    -0.0724882    -0.0214224    -0.0635351     0.0176036    -0.0166156   -0.00355706     0.0029485   0.000398773   0.000453023   0.000389119  -0.000234697
     0.452618    -0.0485437    -0.0236615    -0.0603733     0.0152878    -0.0191206   -0.00261443    0.00363768  -0.000235804 -9.70613e-005   0.000466953  -0.000126345
     0.433643    -0.0213921    -0.0187918    -0.0606066     0.0189733    -0.0175337   -0.00335499     0.0036301 -5.07561e-005     0.0002023  7.87779e-005  2.54458e-005
     0.416607    0.00338533    -0.0147365    -0.0696189     0.0178112    -0.0160208     -0.002016    0.00361578   0.000735504  1.32485e-005   0.000136434  -0.000309053
     0.410916     0.0335944   -0.00972283    -0.0850755     0.0174639    -0.0130894    0.00057273    0.00192906   0.000441242  7.82753e-005  -0.000533284   0.000110227
     0.391906     0.0588603  -0.000536979    -0.0897949     0.0182746    -0.0123241   0.000810062     0.0015084  -0.000281456  6.64507e-005   0.000276137  -0.000863341
     0.361549     0.0724596  -0.000945664    -0.0850076     0.0210404   -0.00970686   -0.00195516    0.00243623  6.21225e-005    0.00076318   0.000355159   0.000501954
      0.34958     0.0663696   -0.00306976    -0.0779404     0.0155813    -0.0101182   -0.00215717    0.00149539  -0.000327664   0.000600465   0.000320006     0.0001551
     0.346024     0.0554551    -0.0012893    -0.0699028    0.00969991    -0.0108872   -0.00230603     0.0021969  5.61417e-005   0.000250514   0.000334781  -0.000542994
     0.328213     0.0473486    -0.0053017    -0.0601702    0.00721695   -0.00981408   -0.00438478    0.00261564  -0.000220496  -0.000112473   0.000470631  -0.000100791
     0.320761     0.0424716   -0.00657799    -0.0569402     0.0033061     -0.010337    -0.0054533    0.00284091  -0.000269507   0.000332564  -0.000337822  -0.000165455
     0.325144     0.0508411    0.00411614    -0.0587735     0.0046054   -0.00913165   -0.00431495    0.00277013   0.000246086   0.000120554   0.000768664  -0.000353511
     0.324429     0.0649716     0.0119997    -0.0610856     0.0089154   -0.00838806    -0.0026231    0.00225589  -0.000372917  -0.000773864 -6.44408e-005  7.72789e-005
     0.325964     0.0609914     0.0107211    -0.0599764    0.00613364   -0.00865461   -0.00425096    0.00123608  -0.000101692  -0.000395564  -0.000189368  -0.000375738
     0.319229     0.0562565    0.00589034    -0.0572066    0.00496957   -0.00754473   -0.00469243     0.0013628  -0.000214176  -0.000453968  -0.000433187   0.000214037
     0.312881     0.0687179    0.00799436    -0.0565774    0.00799983   -0.00804971   -0.00511743    0.00241368   -0.00036866  -0.000426608   0.000847922  -0.000232454
     0.314511     0.0675711      0.011603    -0.0533947    0.00575248   -0.00927906   -0.00516694   0.000382672  -0.000717244   0.000440803   0.000289888  -0.000194202
     0.310675     0.0685108    0.00815705    -0.0555451    0.00358174   -0.00978435   -0.00525681   0.000938298  -0.000572052  -0.000283896   0.000430573  -0.000430221
     0.299758     0.0687588    0.00250626      -0.05489    0.00194519   -0.00923409   -0.00475468   0.000746109   0.000153046  6.73744e-005    0.00053682   0.000247516
     0.296821     0.0629227    0.00109445    -0.0514614    0.00250604   -0.00882558   -0.00531247    0.00144591   0.000308739   0.000374758   0.000153129   0.000383288
     0.293728     0.0685726    0.00236863    -0.0517255    0.00668627   -0.00782274   -0.00617298   0.000520735  -0.000452062   0.000555948  9.30096e-005   0.000736916
     0.290158     0.0667186    0.00103373     -0.052536    0.00408131   -0.00911269   -0.00576779   0.000447515 -4.66742e-005    0.00020431    0.00010592  4.85917e-005
     0.288503     0.0662056  -0.000768055    -0.0545926   0.000259415   -0.00845767    -0.0040008  -0.000434106   0.000612939 -3.26871e-005 -6.73741e-005   0.000299779
     0.292269      0.070215   -0.00207682    -0.0598357   -0.00102759   -0.00780005    -0.0019451    0.00126666   0.000281927   0.000371838   0.000160598   0.000385803
     0.301727     0.0720636   -0.00389083    -0.0640382  -0.000929603   -0.00774469   -0.00346514    0.00112981  -0.000230788   -0.00010956   0.000487296 -9.29437e-005
     0.294877     0.0757289    0.00129232    -0.0610656    0.00229804   -0.00697175   -0.00283469    0.00161644 -7.15315e-005   0.000192832   0.000101963  5.00663e-005
     0.290234      0.082193     0.0063978    -0.0634643    0.00388022   -0.00611784   -0.00447108    0.00133522 -1.78735e-006  -0.000250465   0.000908098   0.000114959
     0.289657     0.0776126    0.00410485    -0.0617519   0.000377323   -0.00726565   -0.00368081    0.00141569   0.000145517  5.98436e-005   0.000532903   0.000250204
     0.286071     0.0744335    0.00449655    -0.0563541  -0.000864893   -0.00903701   -0.00197728    0.00147794  -0.000289044   0.000328717  -0.000323638  -0.000153671
     0.281569     0.0814026    0.00318929    -0.0588029  -0.000189169   -0.00814017   -0.00154167    0.00138033  -0.000714104  -0.000350574   0.000189447    0.00016159
     0.281348     0.0824631    0.00231201    -0.0605779   0.000666297   -0.00784957   -0.00169291    0.00217878  -0.000451077   1.4765e-005  4.92747e-005  -0.000293544
     0.284172     0.0882896    0.00573328    -0.0605112    0.00442115   -0.00579569   -0.00234048    0.00139886   0.000400112   0.000425108    0.00039832  -0.000197977
     0.281282     0.0871887     0.0104692    -0.0575618    0.00244808   -0.00468715   -0.00358596     0.0032994  -0.000379406   0.000252655  -0.000588344   0.000444701
     0.285466     0.0921912     0.0161309    -0.0609645   0.000773105    -0.0055781   -0.00250648    0.00112049  -0.000122447  -0.000402129  -0.000183324  -0.000370177
     0.287545     0.0984704     0.0192547    -0.0639399   0.000513606   -0.00492161    -0.0024645    0.00149479  -0.000117279  -0.000407251  -0.000187515  -0.000367248
     0.280558     0.0972596     0.0136574    -0.0640325   0.000348218   -0.00503505   -0.00269738    0.00249921   0.000246329  -0.000235721  -0.000143357 -3.36571e-005
     0.280194       0.10431     0.0234053    -0.0599335     0.0022617   -0.00508098   -0.00273777    0.00186772  4.99932e-005  -0.000103164  -0.000572556  -0.000225622
     0.281721      0.109215     0.0270434    -0.0651606    0.00519743   -0.00412534   -0.00112676    0.00232988   0.000354513  -0.000182754   9.8857e-005  -0.000616024
     0.270419      0.107478     0.0148197    -0.0633233    0.00516837   -0.00392161   -0.00305187    0.00230151   0.000465407  -0.000372244   0.000282736   0.000171757
     0.267845     0.0974126     0.0149551    -0.0624015    0.00058012   -0.00547825   -0.00244414    0.00146566  -0.000225665  -0.000122659   0.000480457  -8.1806e-005
     0.267862      0.083271    0.00720451    -0.0624401    -0.0047086   -0.00716765   -0.00196234    0.00298814  -0.000393036   0.000256504  -0.000580025   0.000438984
     0.260672     0.0763402    0.00327974    -0.0536242   -0.00354407    -0.0063433   -0.00274951     0.0023179   0.000210615  -0.000221495  -0.000131023 -5.10977e-005
     0.258088     0.0798955     0.0058327    -0.0548193   -0.00119248   -0.00645436    -0.0030678    0.00290341   0.000379792   0.000424813   0.000394519   -0.00021373
     0.260037     0.0870586    0.00522792    -0.0603445  -0.000468604   -0.00543886   -0.00249476    0.00266181   0.000389095  7.80912e-005  -0.000519925  9.78396e-005
     0.256447     0.0931871     0.0082777    -0.0604928   -0.00022712   -0.00585226   -0.00357457    0.00107519  -0.000273942    0.00066961   0.000587723  -0.000449097
     0.248924     0.0886813    0.00753219    -0.0533488  -0.000937125   -0.00682215   -0.00459433     0.0010839  -0.000271446   0.000329971  -0.000324936  -0.000149611
     0.242578     0.0685521   -0.00120364    -0.0463916   -0.00389958   -0.00630266   -0.00527841    0.00239647   0.000212831  -0.000214246  -0.000130899 -5.91359e-005
     0.241153     0.0725273    0.00345528    -0.0490321   -0.00530003   -0.00714034   -0.00557921    0.00182942  -0.000240524  -0.000450215   -0.00042688   0.000200146
     0.249936     0.0944287      0.017946    -0.0600601  -0.000970384   -0.00460862   -0.00310773   0.000510755  -0.000694828   -0.00035223    0.00019123   0.000174463
     0.247854     0.0972642     0.0180978    -0.0590829   0.000238643   -0.00324339   -0.00323491    0.00152156  -0.000537966 -5.00814e-005  -0.000195959   0.000313665
     0.244741     0.0909329     0.0177437    -0.0516418   -0.00137713   -0.00504607   -0.00339614    0.00217117 -8.07538e-005   0.000187484   0.000100552  4.92318e-005
     0.241358     0.0880834     0.0197264    -0.0485931   -0.00308253   -0.00604752   -0.00333643    0.00221745  -0.000292206   0.000322584  -0.000328253  -0.000153197
     0.241286     0.0946911     0.0237841     -0.051666   0.000911709    -0.0038948   -0.00413928   0.000857519  3.99698e-005 -9.11391e-005  -0.000561811  -0.000229693
     0.239056     0.0844516     0.0175065    -0.0499317   -0.00127741   -0.00472796   -0.00308329    0.00255839   0.000218552  -0.000227843  -0.000136751 -4.50971e-005
     0.237847     0.0745231    0.00779456    -0.0517381   -0.00694102   -0.00717236   -0.00324831    0.00245358  3.53483e-006 -8.66937e-005  -0.000561152  -0.000254024
     0.238849     0.0821189    0.00772263     -0.058609    -0.0068592   -0.00610009   -0.00316685   0.000631723   0.000531864  -0.000287128   0.000556755  -0.000438113
     0.238422     0.0847656     0.0135957    -0.0549182   -0.00668863   -0.00613173   -0.00260976   0.000499471  -0.000458538  2.49321e-005  6.73051e-005  -0.000290702
     0.239902     0.0899846     0.0210852    -0.0538883   -0.00300121   -0.00442372   -0.00374044  -0.000290945  -0.000438998  2.47887e-005   6.7177e-005  -0.000280292
     0.236878     0.0960533     0.0201892    -0.0557104   0.000557373   -0.00400056   -0.00370093   0.000241655   0.000347487  -0.000160102   0.000119648  -0.000623004
     0.233582      0.103192     0.0302581    -0.0557346    0.00200063   -0.00415522   -0.00284155   7.6515e-005   0.000523216   0.000228345    0.00058822   0.000608568
      0.21873     0.0996345     0.0299385    -0.0502394    0.00298625    -0.0050737   -0.00476614   -0.00125691   0.000272926  -0.000217255  -0.000122828 -2.00654e-005
       0.2088     0.0967353     0.0196602    -0.0514068    0.00302748   -0.00484011   -0.00399204  -0.000427766  -0.000263785   0.000331534  -0.000319242  -0.000136651
      0.21475     0.0887386     0.0133938    -0.0548584  -0.000211447   -0.00580213   -0.00483645  -0.000493926 -1.48172e-005  -0.000324828  7.34371e-005  -0.000967894
     0.221761     0.0723858    0.00901709    -0.0532484   -0.00668558   -0.00569936   -0.00522048  -0.000935324  -0.000133616  -0.000376855  -0.000160835  -0.000380943
     0.233939     0.0722875    0.00739799     -0.057517    -0.0109325   -0.00671302   -0.00509411  -0.000353373   0.000334112  -0.000143226   0.000134931  -0.000638985
     0.238486     0.0758469     0.0080777    -0.0598489    -0.0126349   -0.00723656   -0.00246482  -0.000539837   0.000212697   0.000136648   0.000807606  -0.000348344
     0.230641     0.0698183    0.00752147     -0.053439    -0.0127621    -0.0080711   -0.00488539     0.0010006     0.0004797   -0.00112874    0.00020826   0.000508166
     0.225816     0.0756132     0.0135146    -0.0494175   -0.00827994   -0.00660498   -0.00493146     0.0012605   0.000531621  -0.000285723   0.000553672   -0.00044575
     0.222371     0.0747348     0.0179421    -0.0496202   -0.00867224   -0.00631257    -0.0045324    0.00108606   0.000323046  -0.000152397   0.000124732  -0.000642763
        0.223     0.0831147     0.0159051    -0.0574369   -0.00871889   -0.00778843   -0.00416499    0.00140213  3.35898e-005 -8.64343e-005  -0.000559724  -0.000244193
      0.23028     0.0971286     0.0196281    -0.0662903   -0.00732343   -0.00454961   -0.00303801   -0.00102234   0.000202786   0.000568443 -1.12332e-005  -0.000386986
     0.220266     0.0842827     0.0183874    -0.0542623   -0.00896143   -0.00605189   -0.00482302    0.00104877   -0.00013272  -0.000391805  -0.000175615  -0.000383724
     0.209443     0.0862209      0.021251    -0.0502372   -0.00793769   -0.00752843   -0.00501998 -5.54934e-006 -8.83051e-006     0.0007061  -0.000446981  -0.000602491
     0.216378     0.0937936       0.02494    -0.0563279   -0.00493271    -0.0042951   -0.00343727 -6.06058e-005  2.96488e-005   0.000258176   0.000362674  -0.000534643
      0.22874     0.0926482     0.0214801    -0.0635861   -0.00647917   -0.00397238   -0.00192107  2.15401e-005   0.000281896    0.00062612   0.000231417   -0.00098697
      0.21661     0.0877118     0.0277392     -0.057155   -0.00899325   -0.00375967   -0.00299438   0.000141398 -8.22636e-005     0.0001965   0.000119417  5.73668e-005
      0.20163     0.0833405     0.0283696    -0.0469579   -0.00666509   -0.00616316   -0.00452248   0.000693111  -0.000444656  2.42836e-005   6.2371e-005  -0.000291404
     0.201059     0.0832416     0.0307482    -0.0464335    -0.0077346   -0.00665791   -0.00429052   0.000625569  -0.000282311   0.000331881  -0.000316551  -0.000150085
     0.193209     0.0769832     0.0240883     -0.039561   -0.00616731   -0.00621451   -0.00476053   0.000618967 -8.44124e-005  -0.000140254  -0.000797358   0.000348076
     0.190073     0.0805077     0.0266236    -0.0391849  -0.000420871   -0.00534689   -0.00494061  -0.000653494  -0.000280378   0.000340285  -0.000310975  -0.000145847
     0.188674     0.0869263     0.0327977    -0.0437177   -0.00326029   -0.00666578    -0.0026529   -0.00102524 -1.26735e-005   0.000448483  -0.000503655    0.00079397
     0.187658     0.0785894     0.0257786    -0.0463578   -0.00757173   -0.00609181   -0.00295059  -0.000895909  -0.000150305  -0.000381767  -0.000158844  -0.000379559
     0.179801     0.0782063     0.0244201    -0.0439834   -0.00609376   -0.00647889   -0.00381597    -0.0016421  -0.000140934  -0.000376779  -0.000155877  -0.000377979
     0.179918     0.0813907     0.0242646    -0.0447033   -0.00607686   -0.00638529   -0.00476862   -0.00140268  -0.000377127    0.00028266  -0.000550106   0.000449105
     0.188301     0.0769294     0.0250763    -0.0493543   -0.00816417   -0.00580782   -0.00373675  -0.000738376   -0.00034963   -0.00024841  -0.000591828  -0.000578397
     0.185532     0.0756563     0.0249913    -0.0484704    -0.0105395   -0.00741061   -0.00193255  -0.000723321  6.40185e-005   0.000515245  -0.000250119   0.000189139
     0.170338     0.0748163     0.0280169    -0.0375083    -0.0056865   -0.00691315   -0.00489709  -0.000507147  6.51604e-005  -0.000513544   0.000266388   -0.00018614
     0.189887     0.0762931     0.0301267    -0.0534231    -0.0130694   -0.00651338   -0.00338401   -0.00076354   -0.00038726   0.000277715  -0.000549364   0.000447821
      0.22152     0.0761734     0.0273803    -0.0789008    -0.0252127   -0.00740032     0.0001361  -0.000628132   0.000109064 -1.95432e-005  -0.000285297  -0.000828972
     0.213438     0.0748024     0.0234372     -0.077145    -0.0225915   -0.00629962  -0.000897698  -0.000768358   0.000383913  9.48448e-005  -0.000482795   0.000106392
     0.192918      0.080821     0.0287078     -0.060581      -0.01319   -0.00402596   -0.00110147   0.000946704   0.000367135   8.6069e-005  -0.000497408   0.000101339
     0.173854     0.0848937     0.0406283    -0.0441292   -0.00668591   -0.00456896    -0.0033103   0.000699899  -0.000245151  -0.000456757  -0.000420034   0.000216186
     0.174364     0.0842843     0.0431726    -0.0503095    -0.0097029   -0.00480239   -0.00313977   0.000152695   0.000497795   0.000236132   0.000598772   0.000595551
     0.185958     0.0903117     0.0433209    -0.0574191   -0.00895297   -0.00427608  -0.000779561    0.00064327  -0.000187107   0.000125787  -0.000132383   0.000654914
     0.188272     0.0976747     0.0427911    -0.0617337   -0.00692646   -0.00379827   0.000901752   0.000420285  5.60091e-005  -0.000538745   0.000258225  -0.000166117
     0.176732     0.0955177      0.046771    -0.0586011   -0.00734396    -0.0033277   -0.00202039   0.000762048  9.07669e-005   0.000492866  -0.000271128   0.000205358
     0.173579     0.0889724     0.0486368    -0.0508514   -0.00807637    -0.0034186   -0.00126029  1.91207e-005  7.17414e-005   0.000499623  -0.000260408    0.00020294
     0.178325     0.0855142     0.0469749    -0.0521247    -0.0128407   -0.00545828  -0.000873407   0.000926487  -0.000306146   0.000323605  -0.000313242  -0.000145981
     0.169103     0.0743641     0.0381917    -0.0481412    -0.0134608   -0.00498005  -0.000828108   0.000893841  9.08606e-005  -0.000280647  -0.000360561   0.000549262
     0.163305     0.0717203      0.036724    -0.0463347    -0.0129883   -0.00498766   -0.00203665    0.00034964  -0.000172648   -0.00038734  -0.000161423  -0.000385882
     0.160782     0.0738548     0.0376721    -0.0498382    -0.0118785   -0.00446046    -0.0019807    0.00140461  3.73209e-005  -0.000528294   0.000259234  -0.000187516
     0.148939     0.0737189     0.0377463    -0.0465282   -0.00963427   -0.00346014   -0.00229358    0.00148714  -0.000113429   0.000195301   0.000114554  4.38238e-005
     0.149729     0.0704549     0.0381397    -0.0470565    -0.0107836   -0.00386495   -0.00271076     0.0015939 -5.10431e-005   0.000785356   0.000401089   0.000473121
     0.143041     0.0541973     0.0280224    -0.0405564    -0.0140571   -0.00439709   -0.00340636    0.00282165 -4.02001e-005   0.000263079   0.000360756  -0.000570893
     0.142493     0.0507441     0.0272305    -0.0412649    -0.0169342    -0.0065501  -0.000985128    0.00216344  -0.000318567  -0.000103278    0.00050346  -0.000119171
     0.146418     0.0600083     0.0305818    -0.0510273    -0.0155515   -0.00441526   -0.00113802  -0.000198893   0.000295117   0.000886435  -0.000379039  -0.000270045
     0.128764     0.0590925      0.031841    -0.0419635    -0.0140305   -0.00472619   -0.00234276   0.000169353  -0.000277994   0.000933642 -1.22895e-005   0.000268332
     0.132421     0.0586936     0.0351407    -0.0442039    -0.0145271   -0.00470614   -0.00192631  -0.000479787    0.00096309  -0.000383292 -4.07292e-005  -0.000394052
     0.134016     0.0591326     0.0384818     -0.045872    -0.0128578   -0.00360782   -0.00146509   0.000110972   0.000552093 -3.53004e-005 -5.63994e-005   0.000292977
     0.130126     0.0626353     0.0345294    -0.0506761    -0.0156635   -0.00278127  -0.000240131  -0.000342096  2.20842e-005   0.000515588  -0.000243147   0.000185831
     0.137224     0.0730741     0.0415315    -0.0574253    -0.0150429   -0.00254806   -0.00150384   -0.00085449   0.000214897    0.00116331   0.000286672  3.32624e-005
     0.132449     0.0761629     0.0519571    -0.0523026    -0.0134401   -0.00168867     0.0001229  -0.000905868    0.00056089 -4.12853e-005 -5.17781e-005   0.000309521
     0.126612     0.0728328     0.0463224    -0.0545112    -0.0126743  -0.000567053   0.000325257    -0.0021552   0.000508495   0.000751854  6.15196e-005 -4.98278e-005
     0.122369     0.0674711     0.0474341    -0.0533837     -0.015538   -0.00254857   0.000654169   0.000272706    0.00101416   0.000193084   0.000240823  4.47701e-005
      0.11124     0.0628169      0.044841     -0.047057    -0.0163848   -0.00284824   0.000789726    0.00095364   0.000526771 -4.19015e-005  -5.6982e-005   0.000290085
     0.102471      0.056931     0.0454294    -0.0384581     -0.014097   -0.00199813  -0.000674464     0.0010647   -0.00072876   0.000249155   0.000498544   0.000579989
    0.0984932     0.0563129     0.0469876    -0.0361947     -0.014612   -0.00101393  -0.000503406    0.00166882  -0.000592836  -0.000476315   0.000640186   0.000345189
    0.0940064      0.051613     0.0420042    -0.0337762    -0.0151578   -0.00269038   -0.00142282   0.000601782   -0.00053057  3.65566e-005  8.38187e-005  -0.000308815
    0.0908396     0.0463008     0.0444396    -0.0303776    -0.0166591   -0.00262795   -0.00344403   0.000857311  5.50902e-005   7.8841e-005   0.000562697    0.00022715
    0.0888821      0.043018     0.0488056    -0.0329615      -0.01995   -0.00166295   -0.00269139   0.000423754  -0.000368269   0.000347828  -0.000291471  -0.000168724
    0.0870608     0.0297038     0.0384999     -0.037571    -0.0264091    -0.0034861   -0.00158152    0.00132411   0.000430523  -0.000270602    0.00058181  -0.000469822
    0.0905833      0.033982     0.0368043    -0.0472161     -0.026825   -0.00236606  -0.000443871  5.25776e-005  -0.000180684   0.000218561   0.000148912  2.67886e-005
    0.0901279     0.0457003     0.0424629    -0.0507346     -0.023928   -0.00208096   0.000383108  -0.000620757  -0.000269914  6.65039e-005  -0.000949515  -0.000450658
    0.0833726     0.0466235     0.0417523    -0.0511376    -0.0213167   -0.00142342   -0.00177475    0.00100224    0.00011126   0.000577197 -2.00099e-006  -0.000419808
    0.0711245     0.0441208     0.0468309    -0.0446844    -0.0204675   -0.00273214   -0.00155136  -0.000109738  -0.000682335   -0.00026806   0.000468467  -0.000446499
    0.0619158     0.0362677     0.0469623    -0.0397336     -0.025255   -0.00331287   -0.00247079  -0.000260382   0.000108129   0.000245743  -0.000902014  -0.000119798
    0.0595451     0.0377361     0.0489739    -0.0427587    -0.0211486   -0.00403283  -0.000476901  -0.000577374  -0.000380146   -0.00068011   0.000236976  -0.000538569
     0.057526     0.0369815     0.0545494    -0.0444248    -0.0228952   -0.00200869  -0.000858786   -0.00111583   0.000104607   0.000588319  1.58922e-005  -0.000414754
    0.0526716     0.0365426     0.0592365    -0.0406694    -0.0256372   -0.00297418   -0.00267291  -0.000113619  1.52192e-005     0.0005232  -0.000238599   0.000173969
    0.0449281     0.0497596     0.0551002    -0.0482835    -0.0180837   -0.00291026   -0.00156524   -0.00214048  -0.000443822  -0.000741335 -8.52898e-006  7.22996e-005
    0.0391194     0.0540552     0.0595934    -0.0496555    -0.0160002   -0.00152542   -0.00163599   -0.00315773  3.46744e-005  -0.000503677   0.000292863  -0.000172949
    0.0344094     0.0506466     0.0666217    -0.0433803    -0.0181975   -0.00181484   -0.00103528   -0.00180683  -0.000230298   0.000151873  -0.000102358   0.000645601
    0.0365197     0.0427319     0.0636891    -0.0428456    -0.0204213   -0.00176643   -0.00168131  -0.000521607  -0.000239942   0.000149837  -0.000108204   0.000636284
    0.0328825     0.0280667     0.0561791    -0.0436242    -0.0252304   -0.00182905   -0.00258876   -0.00152324 -5.13572e-005   0.000287094    0.00039886  -0.000558689
    0.0226022     0.0227374      0.054859    -0.0422324    -0.0272629    -0.0026804   -0.00132363   -0.00133635    0.00014243  -0.000189269 -8.16554e-005 -5.98262e-005
    0.0161105     0.0176097      0.053456    -0.0400789    -0.0292737   -0.00350827  -0.000904876 -2.36876e-005   0.000240695   0.000900454  -0.000363645   -0.00029159
   0.00688173    0.00758354     0.0445845    -0.0385305    -0.0308519   -0.00389047   -0.00183362   0.000889211   -0.00103344  -0.000184339  -0.000201486 -7.71208e-005
  -0.00401055     0.0093889     0.0493724    -0.0357534    -0.0303664   -0.00357252   -0.00246591   -0.00028038  -0.000659047   0.000338649   0.000769749 -3.66631e-005
 1.49992e-005     0.0174926      0.058631    -0.0435189    -0.0300119   -0.00345209  -0.000813333   -0.00120629   0.000813218  -8.6516e-005   0.000646902  -0.000118345
   0.00643757     0.0237943     0.0665479     -0.049173    -0.0268592  -0.000396519   0.000127318  -0.000412837  -0.000330729  -0.000436251  -0.000387207   0.000199837
   -0.0086512     0.0188949     0.0649531    -0.0463907    -0.0276432  -0.000912058   0.000369616   -0.00170364   0.000132492    -0.0001909 -7.85042e-005 -5.43627e-005
   -0.0282689     0.0110302     0.0576694    -0.0456414     -0.031436   -0.00273996   0.000624225  -0.000762729   0.000116011  -0.000189285 -8.03467e-005 -6.76841e-005
   -0.0354249     0.0112789     0.0557893     -0.048205     -0.029242   -0.00239719   0.000486538  -0.000995014 -2.43346e-005   0.000534295  -0.000225252   0.000166869
   -0.0357369     0.0164097     0.0579119    -0.0493087    -0.0281703   -0.00212614   0.000778793   -0.00204854   0.000451974   0.000772685  7.75946e-005 -8.02316e-005
   -0.0454715     0.0107176     0.0586627     -0.049971     -0.031887   -0.00198057       -0.0001   -0.00033725  7.49057e-005    0.00059371  1.78076e-005  -0.000430665
   -0.0548749  -0.000911938     0.0588922     -0.047902    -0.0328586   -0.00261807  -0.000886094   0.000224117  -0.000559341   5.1664e-005  9.76063e-005  -0.000324605
   -0.0616992    -0.0053466     0.0651037    -0.0420245    -0.0310102   -0.00193402  -0.000855203   0.000596944   0.000113922  -0.000191388 -9.08525e-005 -7.60761e-005
   -0.0673865   -0.00493797     0.0701234    -0.0404389     -0.030637  -0.000591066  -0.000260094  -0.000763903  -0.000570736  5.53475e-005    0.00010628  -0.000318937
   -0.0727196   -0.00442398     0.0711936    -0.0407474    -0.0325229    -0.0018825   0.000162169  -0.000940302 -5.30239e-005  -0.000493157   0.000302086  -0.000211274
   -0.0822482   -0.00854961     0.0694842    -0.0408051    -0.0365524   -0.00223514    0.00103921  -0.000864435   0.000255429   0.000124406  -0.000452935  6.62601e-005
   -0.0876394   -0.00948343     0.0716505    -0.0412551     -0.034054   -0.00166006   0.000661109  -0.000192633   0.000260626   0.000120116  -0.000460877  6.62756e-005
   -0.0909971    -0.0100076     0.0752871    -0.0410301    -0.0304721  3.64014e-005    0.00067706   0.000876746 -5.19411e-005   0.000528532  -0.000234187   0.000156873
     -0.10803   -0.00560789     0.0851524    -0.0329666    -0.0270755   0.000115483  -0.000205097    0.00038739   0.000477708 -2.03629e-005  -4.1316e-005   0.000269858
   -0.0930555   -0.00324035     0.0875732    -0.0514871    -0.0361717   -0.00121717    0.00175078  -0.000208465  -0.000196546   0.000218828   0.000151911  2.64025e-005
   -0.0749056    -0.0163813     0.0743137    -0.0718002    -0.0496308   -0.00392333    0.00338346  -0.000275982  -0.000573129  -0.000294473  -0.000802695 -1.60825e-005
    -0.112231   -0.00289703     0.0890674    -0.0506994    -0.0332899   -0.00214629  -0.000151909   -0.00069458   0.000201054    0.00039531   0.000198105   0.000369697
    -0.127152    -0.0091164      0.097577    -0.0373693    -0.0295993  -0.000669399    -0.0023316 -6.38014e-005  -0.000479272   0.000637298   0.000378554   0.000115547
     -0.13245    -0.0291287     0.0895979    -0.0381383    -0.0379052    -0.0027211    -0.0012712   -0.00153036  -0.000292521   0.000175921 -8.34542e-005   0.000611627
    -0.136714    -0.0188033     0.0979002    -0.0444511    -0.0356092   -0.00217895  -0.000806419  -0.000116429  -0.000338127  -0.000428224  -0.000387108   0.000185392
    -0.140364    -0.0208111      0.105425    -0.0399971    -0.0353697   -0.00222028   -0.00195853   0.000108337   -0.00017181   0.000222545   0.000143837  2.09649e-005
    -0.152976    -0.0307016      0.103954     -0.037653    -0.0372208   -0.00241444   -0.00104157   -0.00124512  6.85226e-005  -0.000686147   0.000485366   0.000582363
    -0.154427    -0.0322342      0.100994    -0.0463199    -0.0350135    0.00110697    0.00101432   -0.00050382 -9.98043e-005  3.04233e-005    0.00033838   0.000817097
    -0.170916    -0.0308293      0.104989    -0.0431914    -0.0366581     0.0012031  -0.000292803  -0.000929142   0.000790743  -0.000427646  -0.000265668   0.000183183
    -0.176165    -0.0324873      0.105858    -0.0476184    -0.0406794   0.000105997   0.000250449  -0.000677377   0.000271261   0.000120457  -0.000459331  7.20569e-005
    -0.181432    -0.0297853      0.112024    -0.0431064    -0.0381996  -0.000269828   0.000782982  -0.000640049  -0.000153317  -0.000559487  5.18824e-005   0.000385809
    -0.196805    -0.0347285      0.114308     -0.033878    -0.0386609   -0.00161801   -0.00027845  -0.000296826   0.000638861   0.000294642  -0.000412216    0.00040646
    -0.204233    -0.0393055      0.111747    -0.0350802    -0.0355097  -0.000556908   0.000390754   -0.00110289  3.04189e-006  -0.000244966  -0.000324719   0.000523366
    -0.206529    -0.0531988      0.115778    -0.0317279     -0.036915  -0.000668511   -0.00140612  -0.000614182  -0.000204814   0.000235181   0.000156158  1.31175e-005
    -0.207675    -0.0563172      0.118346    -0.0312979     -0.038649  -0.000404807   -0.00283548    0.00113581  -0.000137831   0.000473777  -0.000483435     0.0007421
    -0.224501    -0.0566663      0.119122    -0.0256823    -0.0373103   -0.00124525   -0.00130593    0.00192657  -0.000385345  -8.2362e-005   0.000520608  -0.000142213
    -0.232595    -0.0558778      0.125761    -0.0263619    -0.0373687   -0.00108413   -0.00192151  -0.000703157  -0.000364707  -7.1693e-005   0.000536002  -0.000129064
    -0.225156    -0.0411059      0.136924    -0.0369169    -0.0352883      0.002153   0.000187925   -0.00114585  -0.000358964 -8.18565e-005   0.000535253  -0.000111231
    -0.226217    -0.0508046      0.133195    -0.0364111    -0.0395714  9.80417e-005     0.0012317    3.615e-005   0.000404167   -0.00060656  -0.000320348  -0.000163236
    -0.236343    -0.0507198      0.134452    -0.0341587    -0.0411726   -0.00111922    0.00110142  -0.000789215  9.18178e-005   0.000158197   0.000837013  -0.000378073
    -0.241302    -0.0537089      0.138043    -0.0352357    -0.0406634   -0.00131891   0.000675014  -0.000968162  -0.000100823 -5.18719e-005  -0.000508956  -0.000269505
    -0.245663    -0.0581127      0.138443    -0.0310243    -0.0399812  1.70177e-005  -0.000218054 -7.40959e-005 -6.47201e-005   -0.00049479   0.000296775  -0.000217083
     -0.24858    -0.0524002      0.143468    -0.0298713    -0.0387888   0.000567226     0.0016268  -0.000616116  -0.000118909  -5.4865e-005  -0.000508972  -0.000269302
    -0.253112    -0.0567738      0.137657     -0.038168    -0.0392244  -0.000824983     0.0017232  -0.000221253   0.000359005   0.000179896  -0.000217142   -0.00052589
    -0.263143    -0.0617199      0.140836     -0.033238    -0.0400902   0.000683927  -0.000378433   -0.00150428   0.000105161  -0.000180245 -7.45157e-005 -6.93884e-005
    -0.261678    -0.0611026      0.153986    -0.0270547    -0.0371539 -2.14976e-006   0.000217037  5.49566e-005  5.42178e-006  -0.000253859  -0.000334992   0.000523328
    -0.274473    -0.0627469      0.151153    -0.0240618    -0.0328934 -3.13455e-005   -0.00131553  -0.000289349  -4.4486e-005  -0.000495644    0.00028933  -0.000212352
    -0.283835    -0.0664648      0.147557    -0.0214617    -0.0337227  -0.000259374  -0.000713655   -0.00110899   0.000155799   0.000666571   0.000269184   -0.00103063
    -0.285597    -0.0719909      0.148638    -0.0197468    -0.0327928   0.000213817   -0.00104612   -0.00105273   0.000267735   0.000127667  -0.000461932  6.79558e-005
    -0.301366    -0.0734934      0.149694    -0.0134985    -0.0332335  -0.000635566   -0.00278322  -0.000990208  -0.000149268  -0.000546576  4.98481e-005    0.00037549
    -0.302561    -0.0803295      0.146514    -0.0148908    -0.0361338   -0.00337542   -0.00237902  -0.000386794   0.000582812  -0.000284676  -0.000702542 -3.50242e-005
    -0.290619    -0.0804462      0.150194    -0.0216575    -0.0379242   -0.00298751   -0.00082427   -0.00171959 -5.37276e-005  -0.000481763   0.000305052  -0.000218142
    -0.283784    -0.0668202      0.154287    -0.0330436    -0.0374662  -0.000604043     0.0017237   -0.00167649   0.000159364   0.000319509  -0.000640042  -0.000717659
    -0.274767    -0.0653286      0.154338    -0.0444902    -0.0386817  -0.000279279     0.0031695   -0.00146742  -0.000361583  -0.000425701  -0.000376297   0.000194144
    -0.262065    -0.0632618      0.160458    -0.0508676    -0.0408837    0.00116455    0.00331235   -0.00144273  -0.000731554  -0.000259561   0.000487401  -0.000445849
    -0.269596    -0.0661453      0.157448    -0.0471383    -0.0395764    0.00035415    0.00359689   -0.00114484  -0.000102646 -5.90293e-005  -0.000510929  -0.000258257
    -0.286089    -0.0727053      0.157441    -0.0356134     -0.038744   -0.00113095    0.00144356   -0.00095705   0.000414454   -0.00025871   0.000595283  -0.000463789
    -0.291192    -0.0781977      0.157107    -0.0335786    -0.0403469   -0.00176872     0.0014114  -0.000430156   0.000569528  4.91262e-005   0.000213916  -0.000328402
    -0.272928    -0.0877605      0.151164    -0.0439297    -0.0511799   -0.00185257    0.00205967  -0.000269732    0.00024611   0.000123835  -0.000454411  6.13491e-005
     -0.26218    -0.0817384      0.160884      -0.04383    -0.0478086  -0.000781886   0.000724425  -0.000252724   0.000739417   0.000354708  -0.000164032  -0.000184383
    -0.283242    -0.0682081       0.17088    -0.0327051    -0.0384422    -0.0004658   0.000737091  -0.000468214    0.00080046   -0.00043544   -0.00027468   0.000186143
    -0.289876    -0.0484011       0.18093    -0.0384908    -0.0340543   0.000507104    0.00278526   -0.00252075  -0.000172137   0.000219444   0.000155432  4.82042e-005
    -0.285633    -0.0412715      0.185565    -0.0430885    -0.0301202    0.00214078    0.00214841   -0.00191195 -6.12243e-006   -0.00051228   0.000287507  -0.000176462
     -0.28913    -0.0587536      0.173236     -0.036935    -0.0342625   0.000121051   0.000819905   -0.00144573   0.000298412   0.000457001   0.000445428  -0.000216478
    -0.294465    -0.0820207      0.161543    -0.0302123     -0.041565   -0.00330542   0.000924226   -0.00128264   0.000533519   0.000495781  -0.000590985  -0.000385151
    -0.294229     -0.101796      0.165909    -0.0148678    -0.0449966   -0.00289188   -0.00045603   0.000308715   0.000448279 -5.36169e-006 -2.86708e-005   0.000249468
    -0.291644    -0.0941886      0.165307    -0.0192077    -0.0417018   -0.00306048   0.000357071  -0.000340259   0.000252849   0.000126777  -0.000459452  5.85093e-005
    -0.300414     -0.083765      0.167516    -0.0217148    -0.0367039   -0.00299128  -0.000977037   -0.00106272  -0.000655912 -2.62104e-006  -0.000145253   0.000272155
    -0.299901    -0.0750492      0.175952    -0.0227509    -0.0341167  -0.000658842  7.88431e-005     -0.001427  8.37116e-005    0.00034039 -4.37091e-005   0.000963185
    -0.300925    -0.0822013      0.173077    -0.0212562    -0.0331547  -0.000416212    0.00193854  -0.000148851    -0.0001673  -0.000561112  4.48315e-005   0.000382834
    -0.310094      -0.10563      0.163908    -0.0104494    -0.0396814   -0.00456669  -0.000506335   0.000124168  -0.000383545  -0.000413119  -0.000380031   0.000161991
    -0.313995     -0.130211      0.151744   -0.00413879     -0.046284   -0.00598288   0.000118357    0.00123497   0.000250455  -0.000646459   -0.00055975   0.000389051
    -0.328847     -0.122221      0.157663    0.00592699    -0.0363715   -0.00429522    -0.0021487   0.000500594   0.000843496  -0.000347008 -2.05686e-005  -0.000451326
    -0.330811    -0.0976935      0.173373   0.000676917    -0.0300008   -0.00436482   -0.00150432   -0.00203623   0.000481596  3.40539e-006 -2.71809e-005   0.000261898
    -0.318627     -0.108539      0.173183    0.00652835    -0.0348096   -0.00601557  -0.000338406   -0.00054496   0.000820266   0.000175174  2.23038e-005   0.000587627
    -0.310362     -0.096189      0.170513   -0.00260953    -0.0325774   -0.00421323   -0.00136763  -0.000886455  1.63152e-006   0.000105694   0.000584281   0.000206653
    -0.303506    -0.0837111       0.17281    -0.0109074     -0.029731   -0.00250018  -0.000370918  -0.000615188  -0.000310474  -0.000862836   0.000423493   0.000238977
