   0.00710517    -0.0059871       0.12879    0.00703049     0.0178315    -0.0141775   -0.00071381   -0.00945554   0.000294391   0.000164257  -0.000305632   0.000322335
   -0.0036775    -0.0200877      0.106725    0.00391191     0.0194945    -0.0170249    0.00237636   -0.00615694   -0.00011397   0.000314181   0.000512581 -4.16257e-005
   0.00428742    -0.0183398      0.138045    0.00204021      0.014489     -0.013163  -0.000139532   -0.00680238  -0.000494661   0.000629936   0.000222614  -0.000161341
    0.0143085     -0.011828      0.162918    0.00530838    0.00927656   -0.00575685   -0.00364164   -0.00635355  -0.000124119   0.000338461   0.000518262 -5.58392e-005
    0.0103827    -0.0106877      0.148182    0.00772354     0.0134515    -0.0129363   0.000447744   -0.00675597  3.15645e-005  2.52536e-006 -2.89447e-005 -1.22289e-005
   -0.0133104    -0.0303789      0.121395    0.00309111     0.0214512    -0.0160125    0.00281222   -0.00718714   0.000272939   0.000645107   0.000415386  -0.000174545
   -0.0179956    -0.0350547      0.128588    0.00254796     0.0220861    -0.0143408   0.000916531   -0.00589599   0.000578535  4.65623e-006  -0.000677484  -0.000118223
   -0.0203786    -0.0455845      0.111571  -0.000886612     0.0207495    -0.0184756    0.00276914   -0.00570081  4.26573e-005 -7.88316e-006 -3.72575e-005 -1.39071e-005
    -0.016084    -0.0558552     0.0914984   -0.00598387     0.0174144    -0.0196036    0.00434554   -0.00440188  5.54926e-005   0.000625531  -0.000430336  -0.000265988
   0.00908576    -0.0493448       0.11958   -0.00575635     0.0059695    -0.0177812      0.001184   -0.00303362   0.000422671   0.000338777  -0.000133222  -0.000160669
   0.00471635    -0.0475157      0.117481   -0.00539321    0.00533277    -0.0202707    0.00197903    -0.0042391   0.000798069  2.63393e-005   0.000159727 -4.16158e-005
  -0.00106837    -0.0453642      0.110925   -0.00758081     0.0100438    -0.0197067    0.00271492   -0.00394266   0.000799841  2.46731e-005   0.000160217 -4.09989e-005
   0.00923351    -0.0459882      0.131762   -0.00971444    0.00825251    -0.0182049  -0.000729454   -0.00393939   0.000518611    0.00020907   0.000530227   0.000385322
   0.00845189    -0.0496003      0.142742   -0.00809414     0.0110993    -0.0159937  -0.000343439   -0.00448462   0.000534252  -0.000143149   0.000440384  -0.000375473
   0.00148999    -0.0435006      0.145531   -0.00191542     0.0100595    -0.0112203    0.00197839   -0.00481786   0.000134472  -0.000123234   0.000626354   0.000524286
 -0.000368985    -0.0422741      0.155209    -0.0019077    0.00692245    -0.0143177    0.00330044   -0.00607757  -0.000118141   0.000330048   0.000512955 -4.84199e-005
   0.00413915    -0.0561758      0.163655   -0.00806999    0.00726404    -0.0186477    0.00243153   -0.00487646  -0.000727284 -1.15542e-005  -0.000228919 -1.19338e-006
   0.00170053    -0.0455616       0.15962   -0.00451301    0.00872186    -0.0181339    0.00347816   -0.00670901   -0.00022776  -0.000176195   0.000244367  -0.000343722
  -0.00094587    -0.0299579      0.145864   -0.00107086     0.0122152    -0.0197948    0.00703768   -0.00562792   0.000410937  -0.000305424    0.00026211   0.000107625
   0.00257103    -0.0326114       0.14963   -0.00293652     0.0109933    -0.0201288    0.00559359   -0.00673948   0.000409479   -0.00030781   0.000262664   0.000106752
  0.000902354    -0.0279209      0.166308  -0.000773145    0.00859077    -0.0197918     0.0040234   -0.00804343  -0.000343973   0.000304714  -0.000322779  -0.000120897
  -0.00904532    -0.0272324      0.178468    0.00435415      0.012031    -0.0198257    0.00382547   -0.00847876   0.000407276  -0.000303553   0.000264102   0.000111087
  -0.00627914    -0.0312284      0.194883     0.0052965     0.0109429    -0.0172542    0.00170079   -0.00673638   0.000172642  -0.000944057  -0.000184559   0.000269048
   0.00157149    -0.0251471      0.194218    0.00390406    0.00457486    -0.0154486    0.00295278   -0.00679396  -0.000466261  -0.000819936  -0.000201358  -0.000175588
   0.00149599    -0.0246193      0.190264  -0.000365663    0.00144859    -0.0166657    0.00621649   -0.00956407 -8.05942e-005  -0.000506345   -0.00029829  -0.000301792
   0.00515562    -0.0158061      0.196931    0.00633905    0.00469874    -0.0135276    0.00683443   -0.00941008  -9.6123e-005  -0.000150222  -0.000206251     0.0004635
   0.00331567    -0.0113061      0.176693    0.00769308    0.00967535    -0.0116171    0.00722245   -0.00890308   0.000155197   0.000147546   0.000151689  -0.000464022
   0.00329973      -0.02447      0.165215   -0.00214809    0.00784698    -0.0142992    0.00667862   -0.00897503   0.000417708   0.000322776  -0.000125915  -0.000138871
   0.00402182    -0.0256501      0.178217   0.000120076     0.0056523    -0.0159209     0.0066883   -0.00841846   -0.00035535   -0.00033182  6.81634e-005   0.000129785
   -0.0136097    -0.0291007      0.189558    0.00275024     0.0127329    -0.0157817    0.00545214    -0.0083817  -0.000353342  -0.000326236  6.81538e-005   0.000130273
   -0.0168003    -0.0303554      0.196175    0.00442839     0.0135848    -0.0153504    0.00235411   -0.00731441   -0.00035397  -0.000316044  6.82043e-005   0.000124543
   -0.0123292     -0.034188      0.191951     0.0030685      0.014827    -0.0151165    0.00220443   -0.00538357  -0.000614799  -0.000488154   0.000344455  -0.000209557
  -0.00913041    -0.0371822      0.163811  -0.000886573     0.0172939    -0.0159071    0.00602413    -0.0059928  -0.000600526   0.000131864 -4.74765e-005  -0.000452776
    0.0154926      -0.03232      0.127905   -0.00473957     0.0075498      -0.01601    0.00987616   -0.00506685    0.00014532   0.000498086    0.00023753   0.000289521
    0.0259188    -0.0309917      0.122031   -0.00642233    0.00671312    -0.0115861    0.00927205   -0.00454642  -0.000116824   0.000319388   0.000514289 -4.51816e-005
    0.0319855    -0.0218756      0.131554   -0.00697392    0.00661679     -0.015321    0.00839453   -0.00484182   0.000141438   0.000501689   0.000241336   0.000287195
    0.0309371    -0.0229747      0.133615   -0.00942387    0.00527713    -0.0166217    0.00800063   -0.00555796  -0.000245252   0.000168589   0.000338433   0.000421571
    0.0327963     -0.010735      0.138599   -0.00220909     0.0055198    -0.0110673    0.00879794   -0.00549648   0.000140172   0.000500931    0.00024225   0.000289126
    0.0613641     0.0174063      0.163061    0.00607956    0.00152319   -0.00801536    0.00604522   -0.00432325   0.000245371  3.26673e-005   0.000818702  7.19268e-005
    0.0498586    0.00648411      0.148338    0.00391673    0.00679476   -0.00788987    0.00704105   -0.00416172   0.000413377   0.000338404  -0.000120524  -0.000145248
    0.0405045   -0.00301264      0.118906    0.00289523     0.0141887   -0.00710007    0.00923632    -0.0033564  3.42986e-005  -1.0815e-006 -2.73674e-005 -1.03151e-005
     0.045085   0.000582524      0.131708    0.00354459     0.0148092   -0.00542495    0.00708026   -0.00392617  4.23347e-005   0.000639306  -0.000415291  -0.000260512
    0.0449661   -0.00802016      0.146586    0.00246479     0.0120138   -0.00403635    0.00388242   -0.00479936  -0.000498185   0.000637997   0.000227732  -0.000163063
    0.0442803    -0.0155345      0.134674    0.00170982     0.0141172    -0.0040418    0.00295386   -0.00404261  4.25576e-005   0.000643733  -0.000417195  -0.000269325
    0.0419253    -0.0181111      0.118502   -0.00350434     0.0178315   -0.00682133    0.00795872   -0.00445778  2.00562e-005    0.00034827  6.32801e-005   0.000749197
     0.040801    -0.0147692      0.120381   -0.00313548     0.0198058    -0.0058703    0.00693056   -0.00326916  -0.000231172   0.000812222 -4.97703e-005   0.000167932
    0.0354743    -0.0196073      0.114195   -0.00179314     0.0223399   -0.00249267    0.00649347   -0.00172934   0.000423776   0.000338086  -0.000125107  -0.000155313
    0.0343356    -0.0330877      0.110593   -0.00701776     0.0218309   -0.00341841    0.00342319   -0.00324686  -0.000223663  -0.000177545   0.000246675  -0.000355341
    0.0320735    -0.0410553      0.115955   -0.00923296      0.022472   -0.00450652    0.00323221   -0.00291445  -0.000223253  -0.000174047   0.000246534  -0.000356888
     0.037613    -0.0399295      0.122257   -0.00922231     0.0208387     -0.003882    0.00201651   -0.00224058  -0.000229688   0.000822051 -5.21282e-005   0.000153585
    0.0431657    -0.0455218      0.124311    -0.0131122     0.0199251   -0.00347843  -0.000382723    -0.0024132  3.53329e-005  1.38714e-005 -2.81826e-005 -3.57311e-005
    0.0549371    -0.0434558      0.125299    -0.0137805     0.0190421   -0.00231242    0.00174153   -0.00375661  -0.000227392  -0.000173378   0.000249549  -0.000360713
    0.0439408    -0.0458403      0.114028     -0.012275     0.0282886  -0.000967055   0.000883834   -0.00295533  -0.000500318   1.2928e-006    0.00061544  7.05689e-005
    0.0397199    -0.0485427      0.109842    -0.0116332     0.0310478  1.03423e-005   0.000592014   -0.00287828  -0.000112816   0.000331394   0.000517774 -6.42196e-005
    0.0708392      -0.02538      0.136384   -0.00805015     0.0258038    0.00374225  -0.000784159  -0.000711995  -0.000343698   0.000331975  -0.000314791  -0.000151575
    0.0644727    -0.0318854      0.132498   -0.00923338     0.0273922    0.00534909  -0.000823132   -0.00159367   0.000142423   0.000525896   0.000247115   0.000260783
    0.0444087    -0.0546085      0.108842    -0.0144091     0.0342952     0.0040671   0.000721127   -0.00333871   0.000149842   0.000508261   0.000242002   0.000263487
     0.052336     -0.049996     0.0950299    -0.0120311     0.0396263    0.00656162    0.00158061   -0.00190109  -0.000343053  -0.000326296  6.93214e-005  9.89188e-005
    0.0566786    -0.0400969     0.0920955   -0.00853409       0.04087    0.00911484    0.00344296    -0.0033698   0.000417978  -0.000310251   0.000266814  8.54077e-005
    0.0576461    -0.0402414     0.0920316     -0.010384     0.0419007     0.0117417    0.00308723   -0.00213376   0.000418284  -0.000304443   0.000267292  8.07831e-005
    0.0626825     -0.042783     0.0922066    -0.0109658     0.0423033     0.0120046    0.00251491   -0.00263064   0.000417854  -0.000306064   0.000267669  8.04849e-005
    0.0577493    -0.0337914     0.0909673   -0.00963727     0.0463931     0.0118192    0.00198362   -0.00220151   0.000542238  -0.000152534   0.000448474  -0.000382413
    0.0644859    -0.0380523     0.0874974    -0.0116156     0.0450287     0.0152734    0.00132929   -0.00212999   0.000417994  -0.000304306   0.000268572   7.6925e-005
    0.0649855    -0.0482297     0.0875809     -0.013389     0.0435159     0.0174257   0.000652072   -0.00258553   0.000571386  -0.000631072  -0.000279269    0.00010481
    0.0680725    -0.0432638     0.0888527    -0.0119579     0.0440801     0.0184223   0.000509829   -0.00080175   0.000319912  -0.000165494  -0.000392292  -0.000476097
    0.0758647    -0.0413705     0.0921752     -0.010186     0.0452163     0.0218972   -0.00118847   -0.00215867  4.16653e-005  5.19404e-006  -2.4315e-005 -4.41961e-005
    0.0729922    -0.0441293     0.0929981    -0.0119473      0.046603     0.0213318   -0.00227093  -0.000665802   0.000580653  1.87647e-005  -0.000667352  -0.000151408
    0.0679296     -0.049794      0.102508    -0.0123374     0.0476007     0.0199108    -0.0042984  -0.000705731  -0.000344227  -0.000312516  7.27395e-005  8.32848e-005
    0.0637397    -0.0489856      0.117815    -0.0115331      0.046233     0.0210187   -0.00410048   -0.00134865  -0.000607074  -0.000489733   0.000349794  -0.000245344
    0.0591838    -0.0567722       0.11211      -0.01284     0.0448684     0.0180532   -0.00493808   -0.00183846  -0.000872593   0.000317089   0.000324434 -6.16967e-005
    0.0534893    -0.0657472      0.109151    -0.0149713     0.0457202     0.0165736   -0.00329922    -0.0021026  4.34079e-005  1.32743e-005 -2.68091e-005 -4.81861e-005
    0.0545355     -0.069239      0.111585    -0.0159483     0.0471109     0.0180113   -0.00437801   -0.00272151   0.000429175   0.000343221  -0.000123332  -0.000183795
    0.0445462    -0.0808337      0.119851    -0.0163124     0.0485807     0.0176913   -0.00737706   -0.00264085  -0.000483957    0.00064936   0.000225093  -0.000200399
    0.0513523    -0.0803347      0.110998    -0.0177151     0.0433823     0.0154592   -0.00488962   -0.00229021  7.92163e-008   0.000844515   0.000787532    0.00021451
    0.0657344    -0.0692476     0.0930156    -0.0183415     0.0392689     0.0145066   -0.00220531   -0.00222363  4.29345e-005  5.77964e-006  -2.8426e-005 -4.86422e-005
     0.070949    -0.0614089     0.0765926    -0.0184786     0.0367655     0.0136593  -0.000134243   -0.00195837  -0.000218377  -0.000180294   0.000247264  -0.000375674
    0.0806484    -0.0594183     0.0644913    -0.0208727     0.0351407     0.0144735  4.40562e-005  -0.000899492   0.000185255  -0.000962263  -0.000185093   0.000230539
    0.0778215    -0.0553232     0.0793838    -0.0169019     0.0356649     0.0154826  -0.000858103   -0.00162352  4.16512e-005  2.37142e-006 -2.78453e-005 -4.75426e-005
    0.0769811    -0.0478183     0.0878992    -0.0125198     0.0310252     0.0130395   0.000578992   -0.00303241   0.000578266  3.24776e-006  -0.000670862  -0.000143104
    0.0741042    -0.0415989      0.118174   -0.00850032     0.0311397     0.0144162    -0.0017351   -0.00425083  -0.000225656  -0.000174295   0.000251557  -0.000369077
    0.0828914    -0.0239227      0.123701    -0.0048086     0.0277224     0.0151662   -0.00221917   -0.00375373  -0.000120322   0.000335132   0.000524032 -7.01913e-005
    0.0927858    -0.0155999      0.112193   -0.00518851     0.0210231     0.0139425   0.000779807   -0.00344566  -0.000452896  -0.000195097  -0.000586111  -0.000448316
    0.0820295    -0.0303719      0.116428    -0.0113204     0.0219891    0.00811288  -0.000433627   -0.00499717  -0.000120789   0.000324915   0.000522771 -6.59353e-005
    0.0814024     -0.034778      0.111196    -0.0126362     0.0233768     0.0065169   -0.00037201      -0.00501  -0.000233454   0.000807949 -4.74557e-005   0.000149843
    0.0766927    -0.0263471       0.14175   -0.00666889     0.0246345      0.010302     -0.003983   -0.00643107  -0.000123421   0.000330966   0.000525083 -6.63101e-005
    0.0729602    -0.0287865      0.154304   -0.00495673     0.0267515     0.0119607   -0.00536022   -0.00708156  3.94338e-005   0.000644942  -0.000410792  -0.000283976
    0.0701448    -0.0322715      0.155193   -0.00753632     0.0284279    0.00886846   -0.00503097   -0.00706494  -0.000622995   0.000488023  5.33201e-005   0.000284099
    0.0725016    -0.0389566      0.173015    -0.0107576     0.0247538      0.011166   -0.00544786   -0.00663185    0.00013637   0.000521698    0.00025069   0.000259283
    0.0802903    -0.0398757        0.1742    -0.0142736     0.0188885     0.0105665   -0.00672481   -0.00657422   0.000509193   0.000217808   0.000544311   0.000369384
    0.0816259    -0.0385403       0.16556    -0.0144655     0.0192029     0.0085863   -0.00645901   -0.00579716   0.000312991   0.000481277  -0.000776506  -0.000724138
    0.0870563    -0.0443624      0.168959    -0.0156086     0.0187808      0.013074   -0.00764305    -0.0056062  -0.000349963   0.000327451  -0.000312923   -0.00016305
    0.0929647     -0.040446       0.16913     -0.017548     0.0172404     0.0138503   -0.00734306   -0.00485334  2.41852e-005   2.4963e-005 -1.83828e-005  -5.0673e-005
    0.0932926    -0.0327021        0.1548    -0.0145965      0.018811     0.0146431   -0.00492433   -0.00444744  -0.000501949     0.0006504   0.000233823  -0.000192292
    0.0851151     -0.031796      0.156381    -0.0114984     0.0240993     0.0116914   -0.00482529   -0.00589153  -0.000348137   0.000319343  -0.000312214   -0.00015401
    0.0969315    -0.0225431      0.174066    -0.0056678     0.0190577     0.0126505   -0.00634383   -0.00430294  -0.000862382  -0.000147978  -0.000392844    0.00044075
      0.10243   -0.00770572      0.189076   -0.00264401      0.018254     0.0140959   -0.00754001   -0.00513019   0.000404971   0.000362338  -0.000110226  -0.000175209
    0.0990269    -0.0073398      0.197558   -0.00432729     0.0184908      0.011158   -0.00611593   -0.00532696   0.000670787  -0.000447278 -8.56721e-005  -0.000355509
     0.110548   -0.00760423      0.201183   -0.00414479     0.0136353     0.0149889   -0.00731141   -0.00540207  -0.000602568  -0.000952884   -0.00036473   0.000257593
     0.112624   -0.00251962      0.215241   -0.00328647     0.0144196     0.0197527   -0.00912304   -0.00520788 -9.44254e-005  -0.000463105  -0.000279971  -0.000344632
     0.110878   0.000761467      0.215985   0.000353769      0.018131     0.0169062    -0.0080211   -0.00521651   0.000167916  -0.000284222  -0.000555602 -9.11291e-006
    0.0981586   -0.00103139      0.193647    0.00408966     0.0256629     0.0147032   -0.00487288   -0.00709777   0.000173426   -0.00030318  -0.000558443  2.21197e-006
    0.0890468    0.00309386      0.180148    0.00569749      0.030671     0.0163172   -0.00470096   -0.00776068  -0.000238231  -0.000165061   0.000263101  -0.000356602
     0.108984     0.0101169       0.19753    0.00460402     0.0238136      0.018486   -0.00613209   -0.00802309  -0.000244038  -0.000159001   0.000266534  -0.000359986
     0.113486  -0.000927716      0.220987   -0.00207086      0.017034     0.0192264    -0.0107498   -0.00834684   0.000665313  -0.000448199   -8.201e-005  -0.000359293
     0.121041   -0.00723687      0.235926   -0.00487482     0.0129945     0.0178092    -0.0124906   -0.00769142   0.000786642   -0.00028714  9.86675e-005  -0.000828067
      0.12227    0.00498759      0.231938    0.00349374     0.0114449     0.0209247    -0.0112947   -0.00555006   0.000124394  -0.000436727   0.000561456  -0.000261841
     0.117845     0.0114248      0.208754    0.00912205     0.0146295     0.0223083   -0.00852729    -0.0053778  -0.000480077  -0.000797056  -0.000183972  -0.000205199
     0.091402    -0.0239499      0.169042    0.00217046     0.0244027     0.0200622   -0.00570695   -0.00627024  -0.000887394   0.000317885   0.000330724 -5.07046e-005
    0.0640559    -0.0481654      0.145578   -0.00462574     0.0294979     0.0160274   -0.00547965   -0.00520604  -0.000242849   0.000188063   0.000341852   0.000389389
    0.0721312    -0.0391845      0.147625   -0.00452611     0.0261473     0.0152082   -0.00769101   -0.00551765  -0.000458301   0.000806025  -0.000886382  5.62672e-005
    0.0485178    -0.0553415      0.117805   -0.00415222     0.0378129     0.0163686   -0.00402255   -0.00832025  -0.000345553  -0.000341597  6.80698e-005  9.90414e-005
    0.0331069    -0.0712689     0.0934844   -0.00281076     0.0428603     0.0150087   -0.00326457   -0.00817784  -0.000838388  -0.000195851  -0.000410277   0.000449344
     0.032691    -0.0670706     0.0992156   -0.00122482     0.0449042     0.0163684   -0.00348714   -0.00692557  4.67868e-005 -1.11818e-005 -3.30716e-005 -3.60458e-005
    0.0288785    -0.0606065     0.0990171   -0.00327512     0.0479873     0.0146483    -0.0011733   -0.00694028  -0.000713952 -3.89031e-005  -0.000227891 -1.12051e-005
    0.0514005     -0.040004       0.12527    0.00128682     0.0425929     0.0172495   -0.00298659   -0.00582298  -0.000211397   0.000459323  -0.000139535  -0.000611825
    0.0782027    -0.0288114      0.164102    0.00230425     0.0338055     0.0213577   -0.00837349   -0.00307237  -0.000759543    0.00048473   0.000509618  -0.000523169
    0.0693412    -0.0461218      0.155948   -0.00198954      0.032899     0.0202038   -0.00789741   -0.00408773   0.000141985   0.000530075   0.000246912   0.000249812
    0.0609767    -0.0442829      0.146205  6.18152e-006     0.0375616     0.0194146   -0.00884343   -0.00299116   0.000268425   0.000684097   0.000425458  -0.000215192
    0.0472589    -0.0437385      0.128949    0.00497279     0.0450964     0.0185233   -0.00434297   -0.00330526  -0.000748548   0.000467905   0.000502726  -0.000514694
    0.0367998    -0.0424601      0.113726    0.00922982     0.0502301     0.0201431   -0.00103413   -0.00424545  -0.000482315   0.000634896   0.000224073  -0.000177292
    0.0454326    -0.0390544      0.104399    0.00786678     0.0522655     0.0231251     -0.001391   -0.00264816    -0.0001871    -0.0006478   -0.00047745   0.000129092
    0.0583903    -0.0404027      0.113967    0.00655301     0.0470184     0.0260485   -0.00263112   -0.00367357    0.00026547  2.78555e-005   0.000812771  4.34836e-005
     0.104325    -0.0135182      0.173943    0.00902474     0.0299198     0.0323843   -0.00834993   -0.00141225   0.000303461  -0.000129515  -0.000383629  -0.000486112
     0.109938    -0.0023605       0.17488    0.00880425     0.0290678     0.0294559   -0.00901286  -0.000467226  -0.000128655   0.000374877   0.000531881 -8.48354e-005
    0.0814015    -0.0179829      0.144524    0.00844326     0.0363182     0.0242752   -0.00384287    -0.0015073  -0.000217622   0.000486402  -0.000134724  -0.000620744
    0.0755712    -0.0221971      0.129591     0.0115929      0.042577     0.0291934   -0.00118396   -0.00111886   0.000271864   0.000679851   0.000426252  -0.000206189
    0.0741386    -0.0137088      0.142056     0.0158801     0.0427567     0.0303875   -0.00359495   -0.00179624   0.000422223   0.000358351  -0.000118518  -0.000174982
    0.0738209    -0.0181788       0.16237     0.0148709     0.0393416     0.0296483   -0.00650914   -0.00380762  -0.000479754   0.000305696   0.000141734  -0.000949917
    0.0714135    -0.0277797      0.153307     0.0113435      0.036637       0.02951   -0.00536463   -0.00187074  -0.000868199   0.000968816 -6.36283e-005  -0.000307052
    0.0690822    -0.0246001      0.151689     0.0138808     0.0367264     0.0292664    -0.0061372   -0.00220957  -0.000231316   0.000841514 -4.69465e-005   0.000137774
     0.058804    -0.0298995      0.144755     0.0132139     0.0426953      0.028677   -0.00673827   -0.00327269  -0.000614511   0.000504159  4.89055e-005    0.00027376
    0.0439756    -0.0391001      0.126367     0.0128612     0.0451281      0.028745   -0.00270041   -0.00251352   -0.00033156   0.000323385  -0.000322215  -0.000155778
    0.0471513      -0.03036      0.133567     0.0146851     0.0472117     0.0295978   -0.00412569  -0.000787358  -0.000457336   0.000183766  -0.000499289   0.000304836
     0.050088    -0.0280031      0.145056     0.0159574     0.0440498     0.0297295   -0.00631224   -0.00263475  -0.000488864   0.000658232   0.000227431  -0.000189965
    0.0422644    -0.0303462      0.139579     0.0163853     0.0454157       0.02761   -0.00434731   -0.00220553  5.19761e-005   0.000661969  -0.000417099  -0.000289584
    0.0269451    -0.0446853      0.121493     0.0126175     0.0520187     0.0275068   -0.00334428   -0.00346023   -0.00021463  -0.000166783   0.000246135  -0.000368962
    0.0285093    -0.0500095      0.126222    0.00891512     0.0494295     0.0255811   -0.00490492   -0.00399249   -0.00021619  -0.000166213   0.000246376  -0.000371393
    0.0331256    -0.0328799      0.131006      0.013993     0.0497097     0.0267716   -0.00307852   -0.00404183  -0.000484215   0.000643926   0.000225378  -0.000181561
    0.0206797    -0.0388532      0.100939     0.0147192     0.0570907     0.0290585   0.000557518   -0.00543055  -0.000971884  -0.000211748  4.81883e-005  -0.000339033
    0.0539583     -0.017076      0.122923     0.0170708     0.0472719     0.0297378  -0.000921354   -0.00582701   0.000160842    0.00114135  -0.000145589  2.07908e-005
    0.0866832    0.00770608      0.134268     0.0182418     0.0325524     0.0312114  -0.000712549    -0.0048654   0.000542543   0.000490233  6.16386e-005  -0.000629394
      0.06894   0.000950753      0.124428     0.0195898     0.0390018     0.0326218  -0.000731795   -0.00429944  5.25545e-005   -0.00034605  -0.000114306  -0.000794673
    0.0498135    -0.0116461      0.115621     0.0193145     0.0483127     0.0308936    0.00147848   -0.00563919      0.000957  -0.000303661  -0.000375928 -1.39676e-005
    0.0609584   -0.00737857      0.109834     0.0179076     0.0434653     0.0294847   0.000568011   -0.00706954   0.000149421   0.000493314    0.00024433   0.000273782
    0.0869741     0.0133669       0.15396      0.019728     0.0324801     0.0311474   -0.00309602   -0.00491162   0.000267144  -0.000316569   0.000730808  -0.000712258
    0.0865277    0.00787771      0.148484     0.0182749     0.0322144     0.0334736   -0.00199371   -0.00397665   0.000268952  -0.000315417   0.000729414  -0.000715086
    0.0712072    0.00120718      0.127969      0.018846     0.0382481     0.0317237   -0.00164422   -0.00470238  4.65834e-005   0.000643942  -0.000413239  -0.000281186
    0.0587703    -0.0016664      0.138679     0.0219673     0.0399402      0.030468   -0.00272971    -0.0053133   0.000160739   0.000161175    0.00015575  -0.000495044
    0.0740102   -0.00273695       0.15557     0.0156987      0.031577     0.0314167   -0.00430973   -0.00357384  -0.000605373   0.000150641 -3.83024e-005  -0.000484826
    0.0859881   -0.00529584      0.153671     0.0117663      0.022803     0.0318579   -0.00380553   -0.00542538   0.000305963  -0.000159169  -0.000388608  -0.000473286
    0.0772741    -0.0147977      0.136912    0.00711827     0.0272514     0.0258883   -0.00315752   -0.00565721   0.000418149   0.000338024  -0.000120236  -0.000172081
    0.0766719    -0.0158384      0.139143    0.00369508     0.0264062     0.0236908   -0.00298753   -0.00569883  3.15764e-005  7.45312e-006 -2.27139e-005 -3.77819e-005
    0.0763323   -0.00704878      0.144267     0.0121889      0.027383     0.0269473   -0.00253878   -0.00389471   0.000166706   0.000805028  -0.000233487   -0.00075044
     0.070939   -0.00400034      0.151047     0.0142268     0.0260992     0.0282681   -0.00585155    -0.0042654   0.000193723   0.000332271  -0.000959382  -0.000259235
    0.0749485   -0.00138766       0.15986     0.0130969     0.0248058     0.0250964   -0.00452633   -0.00498995  -0.000484173   0.000297131   0.000141387  -0.000945124
    0.0813816   -0.00866582      0.143928     0.0100825     0.0207628      0.026449    -0.0015958   -0.00516094   0.000693243    0.00016725  -0.000487205  -0.000603462
    0.0731805    -0.0208981      0.131634    0.00838343     0.0211434     0.0263936   -0.00276042   -0.00631286 -1.06399e-005    0.00083194   0.000789381   0.000228413
    0.0529657    -0.0145789      0.125037     0.0118843     0.0327049     0.0220864   0.000722404   -0.00537148   0.000423757   0.000331738  -0.000123486  -0.000162677
    0.0487965   -0.00387762       0.11864     0.0173209     0.0372771     0.0253603    0.00247825    -0.0049297   0.000192613  -0.000326055  -0.000572875  6.47168e-006
    0.0599492  -0.000212547       0.12121     0.0184418     0.0327533     0.0267067    0.00240532   -0.00648864   0.000200685   0.000304203   -0.00096247  -0.000240195
    0.0540987   -0.00666519      0.109085     0.0154529     0.0329501     0.0256332    0.00259517   -0.00801519   0.000191984  -0.000343565  -0.000574312  9.80877e-006
    0.0512039   -0.00658015      0.124899     0.0181537     0.0319225     0.0275302    0.00193518   -0.00829563  4.86633e-005    0.00062306  -0.000417726  -0.000270511
    0.0600096   -0.00215324      0.151415     0.0173196     0.0254567     0.0262112   -0.00043223   -0.00703333   0.000418336    0.00033459   -0.00012118  -0.000161669
    0.0682537    0.00552299      0.146714     0.0172538     0.0223953     0.0245369    0.00019499    -0.0066406   0.000540901   0.000485431  5.91522e-005  -0.000624356
    0.0663913     0.0132434      0.145932     0.0223094     0.0249667      0.025394    0.00334997   -0.00789742  3.19638e-005 -5.52511e-006 -2.31831e-005 -1.70367e-005
    0.0688403     0.0196781      0.159144     0.0235434     0.0245497     0.0248665    0.00064547   -0.00826985   0.000528306  -0.000154066   0.000451992  -0.000367984
    0.0649564     0.0186644      0.179026     0.0249906     0.0250664     0.0238401  -0.000335659   -0.00796398  -0.000244946  -0.000806413   0.000647123  -0.000100051
    0.0460912    0.00661255      0.186256      0.024318     0.0309967     0.0232664  -0.000815466   -0.00638747   0.000183426  -0.000305682  -0.000567086  9.28597e-006
    0.0342801   -0.00950314      0.174189     0.0208807     0.0338311     0.0232319    -0.0015974   -0.00650566    0.00042056     0.0003464  -0.000121052  -0.000159742
     0.037729    -0.0138832      0.176626     0.0187542     0.0294442     0.0227745   -0.00146814   -0.00810488   0.000572036  1.44572e-005  -0.000667888   -0.00012728
    0.0526909   -0.00166877       0.19285     0.0186627     0.0219799     0.0224234   -0.00315531   -0.00796199 -9.68855e-005  -0.000134737  -0.000200816   0.000436965
    0.0597514     0.0051568      0.195106     0.0154203     0.0150969     0.0181981   -0.00341556   -0.00844373  -0.000209568  -0.000640898  -0.000469469   0.000139579
    0.0698988    0.00192858      0.181235     0.0133137     0.0111396     0.0191935  -0.000586635   -0.00812178   -0.00023708  -0.000170517   0.000254794   -0.00035513
    0.0628875   -0.00520903      0.180621     0.0163398     0.0140263     0.0192609   -0.00243931   -0.00771645  -8.2553e-005  -0.000492202  -0.000293274  -0.000326255
    0.0466336   -0.00740727      0.184104     0.0146333     0.0194755     0.0177191   -0.00362217   -0.00813473    0.00030482  -0.000160832  -0.000389973  -0.000459971
    0.0588914   -0.00469437      0.190804     0.0150093     0.0149158      0.019265   -0.00411603   -0.00884583   2.4993e-005  1.25964e-005  -2.1973e-005 -2.81553e-005
    0.0661784   -0.00280238       0.19507     0.0127897     0.0124051      0.018038   -0.00116153   -0.00702246   0.000399518  -0.000286217   0.000272755  8.67438e-005
    0.0615358  4.10949e-005      0.189557     0.0130077     0.0185157     0.0176229  -0.000109685   -0.00692324  1.55653e-005  -0.000619409   0.000370295   0.000224192
    0.0508624    0.00129545      0.178546     0.0193032     0.0259372      0.018356   0.000867878   -0.00674819  -0.000122463   0.000338677   0.000524642 -5.12447e-005
    0.0399375   -0.00355912      0.164416     0.0186087     0.0264712     0.0195042     0.0010356   -0.00741241  -0.000629528  -0.000151688   0.000438888   0.000546283
    0.0415423   -0.00102718      0.168125     0.0208937      0.027849      0.018632 -3.52484e-005   -0.00760659  -0.000495592   0.000637663   0.000228993  -0.000165094
    0.0464095    0.00729259      0.177374     0.0211199      0.024264     0.0134169    0.00147444   -0.00725007    0.00018225  -0.000315106  -0.000568087  1.67972e-005
      0.05657    0.00427615      0.186079     0.0152225      0.015028     0.0135606  -6.1186e-005    -0.0072686 -9.86303e-005  -0.000137228  -0.000200587   0.000442753
    0.0485384   -0.00883976       0.18482     0.0103912     0.0163792     0.0131138   -0.00139169   -0.00794518  -0.000358722  -0.000319045  7.42218e-005     0.0001098
    0.0422617    -0.0162319      0.178676    0.00983229      0.017152     0.0138051 -8.76099e-005   -0.00760207   0.000677323   0.000520241  -0.000397882   0.000170971
    0.0462959    -0.0188538      0.164417     0.0119663     0.0159352     0.0129813  1.02258e-005   -0.00662793   0.000541313   0.000491564  5.57071e-005  -0.000623922
    0.0355266    -0.0188586      0.160252     0.0117366     0.0176824     0.0118683    0.00343964   -0.00737662  4.90254e-005   -0.00035215  -0.000118551  -0.000781312
    0.0293918    -0.0206655       0.16312     0.0124157     0.0139417     0.0109495     0.0019017   -0.00751475   0.000429537   0.000970221  -0.000516506  -0.000404047
    0.0272877    -0.0262083      0.170302     0.0123959     0.0137459    0.00904393    0.00110332   -0.00623115  -0.000228606  -0.000167375   0.000246652  -0.000353993
    0.0271612    -0.0283212      0.173628     0.0099156     0.0138215    0.00670296   0.000219359   -0.00687777   0.000407392  -0.000294409   0.000264505  9.03936e-005
    0.0315188    -0.0339057      0.162411     0.0021927     0.0107905   -0.00105192  -0.000303928   -0.00745962   0.000515226   0.000203986   0.000534453   0.000389438
    0.0295873    -0.0323332      0.169164     0.0041344    0.00728218   -0.00183456  -3.1518e-005   -0.00835884  -0.000247097   0.000176698   0.000337519   0.000411753
    0.0339972     -0.028035      0.166878    0.00652292    0.00557215    0.00397591     0.0012042   -0.00709607  4.09232e-005   0.000642861  -0.000420064  -0.000272352
    0.0511926    -0.0177933       0.18393     0.0070783 -9.66909e-005    0.00344598   -0.00196692   -0.00784328   0.000290247  -0.000798217 -2.73717e-006  -0.000210165
    0.0597614   -0.00711064      0.198034    0.00788011   -0.00208714    0.00372033    -0.0043592   -0.00855787    0.00017207  -0.000309244  -0.000569065  4.47224e-006
    0.0649568    -0.0142139      0.196281    0.00346492   -0.00601246    0.00352997   -0.00468747   -0.00848135   0.000280345   0.000195293  -0.000299698   0.000299117
     0.061357    -0.0153169      0.208658    0.00447337   -0.00563612    0.00208573   -0.00487047   -0.00822454   0.000665502   0.000531858  -0.000395762   0.000165694
    0.0498287    -0.0142603      0.193895    0.00893294   0.000548058    0.00347748    -0.0024957   -0.00706863   0.000299832  -0.000154289   -0.00039176  -0.000459347
    0.0406056    -0.0184277      0.174473    0.00956388    0.00487462     0.0029323  -0.000971538   -0.00887837    0.00104976   0.000208134  -0.000107348    0.00028898
    0.0342669    -0.0220726      0.168317     0.0113186    0.00979257    0.00430384  -3.5464e-005   -0.00878524  4.05335e-005   0.000637261  -0.000419008  -0.000267784
     0.049778    -0.0178932      0.177667      0.013888     0.0054037    0.00741255  -0.000641018   -0.00871303    0.00053696   0.000487308  5.52684e-005  -0.000619437
    0.0572622    -0.0155534      0.179448     0.0109316   -0.00169809    0.00774035   -0.00131068   -0.00792748  -0.000361584  -0.000321276  6.97215e-005   0.000107686
    0.0567343    -0.0229398      0.175881     0.0070801    -0.0021592    0.00597601  9.16463e-005    -0.0073687   0.000535511   0.000491575  5.47947e-005  -0.000624773
    0.0483726     -0.023979      0.169438    0.00710998    0.00181689    0.00537031  9.09162e-005   -0.00973049   0.000304009   -0.00017735   -0.00039538  -0.000454041
     0.031684    -0.0361364        0.1612    0.00782905    0.00740524    0.00529998  -0.000509005   -0.00859824   0.000264984   0.000655654   0.000417733   -0.00018998
    0.0498008    -0.0368688      0.164472     0.0100227    0.00714839    0.00478297  -0.000427299   -0.00836522   0.000638564   0.000352389   0.000712722 -7.46007e-005
    0.0725481    -0.0358387      0.157444     0.0125064    0.00197288    0.00835628  -0.000380895   -0.00815772 -8.05361e-005  -0.000504551  -0.000300394   -0.00032435
     0.090922    -0.0477521      0.152616     0.0139389   -0.00613277     0.0107049   0.000568109   -0.00624869  3.88905e-005   0.000642461  -0.000423322  -0.000280633
     0.113513     -0.059583      0.152731     0.0113532    -0.0111414     0.0106858   -0.00139463   -0.00529516   -0.00021178   0.000345753  -0.000782234   0.000639647
      0.12892    -0.0738941      0.149047     0.0132305    -0.0129008     0.0101088   -0.00428743   -0.00322264   0.000287643   0.000202574  -0.000311022   0.000281538
     0.140188    -0.0822378      0.144851     0.0191853    -0.0113174     0.0120756   -0.00292272   -0.00295893  -0.000624336   0.000501272  3.71909e-005   0.000271979
     0.169383    -0.0845706      0.143576     0.0219109    -0.0142174     0.0147113   -0.00221584   -0.00239892   3.6553e-005   0.000659708  -0.000425426  -0.000295756
     0.209955    -0.0835061      0.137108     0.0255905    -0.0208027    0.00874359    0.00174639  -0.000640244  2.29457e-005  2.53105e-005 -3.35528e-005  -4.1152e-005
     0.246788    -0.0869103      0.137353     0.0301598    -0.0192507    0.00694695    0.00245915 -6.29795e-005  -0.000354599   0.000333178  -0.000324131  -0.000152027
     0.284492     -0.106918      0.135756     0.0336972    -0.0188985     0.0152182    0.00263054     0.0032113 -8.72378e-005  -0.000462844  -0.000301319  -0.000346703
     0.326584     -0.132219      0.122108     0.0304829    -0.0218762     0.0171938    0.00434833    0.00344617  -0.000630172   0.000515891  4.11451e-005   0.000266654
       0.3745     -0.152841      0.130737     0.0263831    -0.0255315     0.0127362    0.00511208    0.00456217  -0.000743006   1.8376e-005  -0.000225776 -3.33103e-005
       0.3931     -0.165894      0.118822     0.0313679    -0.0237165     0.0166539    0.00798431    0.00653852  -0.000379524  6.84868e-005   0.000155911    0.00084222
     0.388383     -0.167732     0.0909793     0.0429036    -0.0181643     0.0294271    0.00811667    0.00623687   0.000290018    0.00021475  -0.000313497   0.000273113
     0.388024     -0.161442     0.0853425     0.0491941    -0.0163389     0.0345089    0.00799315     0.0056386   0.000182249  -0.000294282  -0.000584471 -2.42232e-005
     0.382067     -0.133239       0.10042     0.0514942    -0.0163888     0.0313269     0.0087934    0.00624495   0.000525076  -0.000115857   0.000439483  -0.000399204
     0.355788     -0.101125       0.12361      0.049489    -0.0143428      0.026353    0.00635164    0.00456491  -0.000116962  1.29614e-005   0.000428154  -0.000837334
     0.333756    -0.0759213      0.144027      0.041206    -0.0164866     0.0174209    0.00455518    0.00292748   0.000514069  -0.000112058   0.000450754  -0.000388227
     0.298348    -0.0181829       0.16942     0.0435917    -0.0228737     0.0148568   -0.00221807   0.000134873   -0.00010409  -0.000460109  -0.000286215   -0.00033483
     0.223411     0.0415602      0.179942     0.0562649    -0.0253664     0.0180206   -0.00831884   -0.00282759   0.000654755  -0.000438418  -9.0739e-005  -0.000351112
      0.17192     0.0791653      0.191878     0.0611983    -0.0233606     0.0228817    -0.0137987    -0.0057828   0.000772523   0.000698862  -0.000210193  -0.000300975
     0.131553      0.102949      0.192124     0.0663887    -0.0235193      0.032591    -0.0176431   -0.00788147   0.000485946   0.000230731   0.000544545   0.000376017
    0.0864465      0.118061      0.188073     0.0736892    -0.0301313     0.0521853    -0.0173861   -0.00828052   0.000643392  -9.8191e-005 -9.02314e-006   0.000398052
    0.0346821       0.16228      0.225942     0.0872631    -0.0397371     0.0734162    -0.0172471   -0.00975354  -0.000495021   0.000188384   -0.00050029   0.000300449
   -0.0148075      0.196078      0.233198     0.0902538      -0.04137     0.0876725    -0.0160254    -0.0102158  -0.000754775  7.95489e-006  -0.000225403 -3.18977e-005
   -0.0602524      0.202954      0.207314     0.0769543    -0.0407204     0.0965494    -0.0129911    -0.0128108   0.000398384    0.00033971  -0.000129821  -0.000187479
    -0.121829      0.197111      0.178481     0.0453798    -0.0376517     0.0968534   -0.00939604    -0.0162096  -0.000143719  -0.000332493   0.000900527   0.000162137
    -0.172711      0.177225      0.133155     0.0114726    -0.0309362      0.100316   -0.00657932     -0.018062   0.000415361   0.000281123  -0.000137459  -0.000197947
     -0.20302      0.186358      0.143007    0.00262999    -0.0472643      0.131258    -0.0122083    -0.0184944   0.000680656   -0.00052339  -0.000118837  -0.000414209
    -0.227613      0.164528      0.142029    -0.0317609    -0.0525326      0.144737    -0.0179479    -0.0201684    0.00015263   0.000103323   0.000133366  -0.000588741
    -0.314613      0.132223     0.0968234    -0.0868846    -0.0356166      0.126747    -0.0148551    -0.0253768   0.000262342 -7.24586e-005     0.0007918  -3.8174e-005
    -0.430615      0.162003      0.111529     -0.111528    -0.0340033      0.127132    -0.0206479    -0.0293038  -0.000487129   0.000530234   0.000204704  -0.000274875
    -0.548234       0.24256      0.148455      -0.10827    -0.0369234      0.142504    -0.0282958    -0.0319437  -0.000348362  -0.000423581  4.99804e-005 -2.80641e-006
    -0.683396      0.318402      0.145293     -0.107794    -0.0223386      0.148232     -0.021959    -0.0330927  -0.000339589  -0.000436157  4.95888e-005  1.38177e-005
     -0.81514      0.353734      0.133959     -0.127513   -0.00579944      0.141443     -0.012469    -0.0318628  -0.000316691   0.000191828  -0.000342015  -0.000221231
    -0.944493        0.3925      0.134276     -0.146101     0.0113395      0.135116   -0.00914951    -0.0314411 -5.68669e-005  -0.000267011  -0.000227501   0.000364174
     -1.06386       0.45536      0.134064     -0.158226      0.030921      0.133826    -0.0115707    -0.0294459   0.000181278   0.000399899   0.000225975   0.000197703
     -1.19636      0.506361      0.121921     -0.166573     0.0501055      0.133583    -0.0105111    -0.0297797  -0.000401978  -0.000311177  -0.000608744  -0.000506567
     -1.35421      0.553944      0.100439     -0.169591      0.064947      0.134525    -0.0108388    -0.0267506  -0.000126579  -0.000125545  -0.000892613  -0.000179325
      -1.4823      0.574267     0.0912016     -0.191762       0.07603      0.110144    -0.0153435    -0.0265247  -0.000659341  -0.000129801  -0.000251621   -7.421e-005
     -1.57123      0.576966     0.0961175     -0.218574     0.0757979      0.090104     -0.016544    -0.0244311  -0.000146722   0.000363504  -0.000170246  -0.000676468
     -1.64733      0.585231      0.114272     -0.221452     0.0632358     0.0909458    -0.0190914    -0.0199953  -0.000530307  6.07543e-005 -8.04223e-005  -0.000559061
     -1.72257       0.58369      0.117486     -0.216546     0.0516789     0.0974942    -0.0211469    -0.0160891   0.000113079  -4.4939e-005 -7.50408e-005  -0.000132016
     -1.81892      0.590907      0.135205     -0.215962     0.0548479     0.0840738    -0.0210203    -0.0124452  -0.000794503   0.000277458   0.000269318  -0.000141811
     -1.87947      0.598361      0.149644     -0.210013     0.0566301     0.0633143    -0.0183859   -0.00660165   -0.00052419  -0.000503693   0.000289627  -0.000318136
     -1.89709      0.581091      0.148962     -0.205473     0.0518697     0.0412725    -0.0169879   -0.00481826  -0.000636032 -1.20082e-005  -0.000284909 -9.29433e-005
     -1.98118      0.593954      0.186453     -0.178549     0.0563845   -0.00718716    -0.0165294    -0.0038359  -0.000277423   0.000814077   0.000340264  -0.000683915
     -2.02944      0.622038      0.225782     -0.131463     0.0544569    -0.0427607    -0.0122994   -0.00278144 -2.67112e-005   0.000373705   0.000449846 -6.23508e-005
     -2.03347      0.606429      0.243354     -0.114152     0.0531311    -0.0749095   -0.00344641   -0.00216652  8.85088e-005  -0.000109877    0.00101697  -0.000243296
     -2.06506      0.567527      0.243604     -0.100766     0.0544536    -0.0985347    0.00161355   -0.00118907 -1.20623e-005  -0.000614175   0.000737248  -0.000522318
     -2.07288      0.555616      0.253399    -0.0856979     0.0469601      -0.10662  -0.000397648    -0.0015185   0.000249584  -0.000430284   0.000455291  -0.000188126
     -2.09982      0.591121      0.278351    -0.0557522     0.0444303     -0.118067    0.00021301   -0.00226386  -0.000780548   0.000360617   0.000234522  3.80213e-005
     -2.14591       0.62607      0.261048    -0.0047329     0.0444969     -0.102297    0.00235216   -0.00372212  7.80485e-006  -0.000739876  8.24143e-005   0.000777634
     -2.20206      0.645785      0.219647     0.0524847       0.04336    -0.0769433    0.00827228   -0.00288321  -0.000101641  -0.000145919   0.000126699  -0.000253834
     -2.25274      0.655286      0.240827       0.10894     0.0466395    -0.0612675    0.00496613   -0.00331416   0.000158022    -0.0005919   0.000227145    0.00033168
     -2.27193      0.635324      0.265291      0.147981     0.0410111    -0.0475892  -0.000331092   -0.00537158   0.000424134  -0.000406586 -6.15673e-005   0.000659454
     -2.31277      0.593126       0.25507      0.185776     0.0282874    -0.0348773   -0.00135073   -0.00615643   0.000452108  -0.000764837  -0.000175063  -0.000106574
     -2.34162      0.509799      0.278783       0.23164      0.011138   -0.00415404   -0.00242194   -0.00469023  -0.000445943  -0.000447512   0.000146593  -0.000138323
     -2.31242      0.358381      0.267878      0.232536    -0.0218989     0.0233189   -0.00225264   -0.00406903   0.000205541  -0.000575334   0.000133809    0.00026427
      -2.2876      0.189521      0.258802      0.201685    -0.0485052     0.0248981    -0.0104678   -0.00626893  -0.000798246  -0.000150443  -0.000199228  -0.000337668
     -2.26121    0.00667549      0.297832      0.154539    -0.0832291    0.00821219     -0.021968    -0.0120585  -0.000177801  7.32763e-005  -0.000107945    0.00082981
     -2.23154     -0.134535      0.335574      0.137191     -0.116539   -0.00831169    -0.0290924    -0.0173976   0.000335418  -0.000439205   0.000258287  -0.000300645
     -2.21261     -0.248382      0.378451      0.143179     -0.138217    -0.0079767    -0.0343048    -0.0192978 -3.68715e-005  -0.000122179 -5.12005e-005  -0.000433297
     -2.19013     -0.378983       0.37292      0.133251     -0.143692   -0.00365786    -0.0341448     -0.021717   0.000721251   0.000243322   0.000219191   0.000292824
     -2.14658     -0.464807      0.351948      0.123029     -0.140907   -0.00233931    -0.0312976    -0.0226079  -0.000140426    -0.0003009  -0.000255018  7.69539e-006
      -2.0706     -0.522695      0.364745      0.111987     -0.145537    0.00427864    -0.0310275    -0.0201891  -0.000186236   0.000543911   0.000562697   0.000257698
      -2.0268     -0.587267      0.334315      0.107909     -0.131903    0.00983153    -0.0261897    -0.0202852  -0.000535918   0.000480733   0.000174073  -0.000619576
     -2.00519     -0.649256      0.274147      0.104376     -0.106318     0.0100421    -0.0176539    -0.0195717 -8.47837e-007  -0.000811776   0.000304541  -0.000216967
     -1.94577     -0.663801      0.274862      0.105308    -0.0983735    0.00974107    -0.0142384    -0.0195767   0.000368222  -0.000130207   0.000303868   0.000418312
     -1.88943     -0.671869      0.276673      0.111976    -0.0849434      0.010915   -0.00774992    -0.0162072  -0.000376539  -0.000498581  2.29245e-005  -0.000315499
     -1.86871      -0.69661       0.24172        0.1138    -0.0537895     0.0113275    0.00120091    -0.0149882   6.5717e-006   0.000171253   1.7967e-005   0.000328566
     -1.83578     -0.695147      0.217862      0.105735    -0.0282844    0.00416534    0.00463321    -0.0128334   0.000151571  -0.000791915  -0.000129214   0.000617887
     -1.79172     -0.678361       0.18154      0.100566   -0.00784291    -0.0053165      0.011253    -0.0111336  -0.000126692   0.000130686   0.000491957  -0.000438174
     -1.75017     -0.683408      0.144682     0.0943377    0.00525031     -0.010788     0.0155473    -0.0138818  -0.000238505     0.0005865  -7.3484e-005  -0.000207754
     -1.70589     -0.691263      0.122037     0.0822799     0.0159041    -0.0106766     0.0149522    -0.0124347  -0.000210598   0.000108869  -0.000793398   0.000282272
     -1.66751     -0.691571     0.0941855     0.0712871     0.0321178   -0.00892655     0.0146884    -0.0129939 -8.59206e-005   0.000248281  -0.000607174  -0.000181255
     -1.63025     -0.695595     0.0544525     0.0599788     0.0507748    0.00283316     0.0141563    -0.0100834  -0.000234493   0.000573284 -5.61801e-005  -0.000225018
     -1.57122     -0.686617     0.0229117     0.0533394      0.065068     0.0270444     0.0123543   -0.00609533  6.11146e-005  -0.000705012  -0.000751788  6.51045e-005
     -1.50987     -0.671178    0.00723235     0.0451297     0.0797238     0.0378799    0.00992789   -0.00427063   0.000774568   0.000155468   0.000272185   0.000302937
     -1.44361     -0.668828    -0.0143966     0.0312918     0.0944297     0.0410419    0.00800336   -0.00256424   0.000395695   0.000462866 -1.04193e-005   0.000181406
     -1.36913     -0.676438    -0.0427339     0.0185031      0.106751     0.0533926    0.00641062  -0.000406557  8.26661e-006   0.000133216  9.44285e-005   0.000301188
     -1.28602      -0.69465    -0.0651266      0.002057      0.117896       0.06623     0.0033088    0.00185819  -0.000369689   0.000443801  -0.000190487   0.000167613
     -1.18805     -0.723703    -0.0743175     -0.019613      0.123109      0.072135   -0.00291094    0.00286657    -0.0011336  -0.000564476 -7.72709e-005  -0.000347428
     -1.12127     -0.742308    -0.0900407    -0.0352309        0.1288     0.0699435   -0.00824059    0.00432646   0.000521165   -0.00047983  -0.000132733   0.000393026
     -1.05828     -0.745696     -0.103922    -0.0482937      0.138153     0.0636957    -0.0101746   0.000768202   2.3598e-006  -0.000221491  3.94774e-005  -0.000508678
     -1.00506     -0.741442     -0.101458    -0.0570223      0.152724     0.0596196    -0.0129824  -0.000985082   0.000633267   -0.00035172  6.83764e-005   -6.033e-005
    -0.966187      -0.71591    -0.0868603    -0.0522793      0.167719     0.0528932    -0.0124532   -0.00164254  -0.000395494  -0.000554197   0.000160262  -0.000354713
    -0.924964     -0.693405    -0.0868739    -0.0500683      0.180009     0.0424042    -0.0119108   -0.00363304  -0.000401266  -0.000563136   0.000170864   -0.00033681
    -0.880476     -0.677979    -0.0831108    -0.0503224      0.182266     0.0361362    -0.0123544   -0.00530244  -0.000788511    0.00072651   -0.00041393  7.20006e-005
    -0.826181     -0.645191    -0.0619212    -0.0464627      0.178655     0.0398453    -0.0139956   -0.00521584  -0.000173401 -2.64467e-005   4.0561e-006   0.000765376
    -0.780214     -0.604899    -0.0459253    -0.0397844      0.177796     0.0372106    -0.0123619   -0.00512294  -0.000167963  -0.000375079   -7.569e-005  1.45385e-005
    -0.734695     -0.556685    -0.0158309     -0.033602      0.174782      0.017423    -0.0103748   -0.00748202  -0.000459599  -0.000202845    0.00030547   0.000473951
    -0.690375     -0.516461     0.0119899    -0.0250362      0.172034    0.00765162   -0.00958167   -0.00801485   -0.00019475  -0.000369799 -4.97638e-005  5.74118e-005
    -0.651495     -0.474737     0.0397409    -0.0143492       0.16898     0.0121179   -0.00929506    -0.0076298   0.000556446  -0.000332982   0.000156516  4.34368e-005
    -0.628411     -0.436709     0.0583358     0.0003222       0.17595    0.00991111   -0.00829746    -0.0096858   0.000174975 -3.03837e-005   -0.00012827 -5.25833e-005
    -0.609537     -0.405424     0.0529934    0.00910959      0.181495    0.00173088   -0.00520748    -0.0120748  -0.000203922   0.000260098  -0.000415717  -0.000145377
    -0.597967     -0.385542      0.063623     0.0106589      0.183186    -0.0100385   -0.00334866    -0.0136399  -0.000481156   -0.00056066   0.000256888  -0.000210657
    -0.568383     -0.354741       0.09696     0.0160114      0.179164    -0.0195933   -0.00465922    -0.0155496    0.00053014  -0.000351346   0.000186908   0.000112019
    -0.511685     -0.308434      0.110122     0.0191222      0.165515    -0.0291568   -0.00227888    -0.0175914  -0.000631488  -0.000714526  9.80166e-005     0.0002825
    -0.469602     -0.280295      0.122337     0.0253195      0.163083     -0.025073   -0.00213766    -0.0156333  -0.000504082  8.63724e-005  -0.000105234  -0.000429891
    -0.433128     -0.260406      0.122445     0.0283741      0.163917    -0.0189759   -0.00105079    -0.0142086   0.000504097  -0.000339666   0.000210924   0.000127933
    -0.417745     -0.254398     0.0958128     0.0265102      0.165208    -0.0216223    0.00128836    -0.0139727  -0.000533147  -0.000201599   0.000381659   0.000584647
    -0.398435     -0.254681     0.0979925     0.0241049      0.163573    -0.0188575    0.00025911    -0.0131426  -0.000644448  -0.000700982   0.000113721   0.000280903
    -0.358393     -0.242534      0.130438     0.0211819      0.149266    -0.0188142   -0.00295751    -0.0146242  -0.000770233  -0.000208662  -0.000449234   0.000492655
    -0.317828      -0.21288      0.181078     0.0242952      0.136885    -0.0225353   -0.00632936    -0.0127093  -0.000922569  -0.000207297  1.71552e-005  -0.000303797
    -0.306376     -0.196538      0.213342     0.0273258      0.137188    -0.0275846   -0.00793201    -0.0132493  -0.000406166   0.000162181  -0.000528611   0.000361319
     -0.30024     -0.187955      0.227855     0.0281477      0.141322    -0.0328672   -0.00837819    -0.0138893  -0.000186655   0.000184757   0.000315668   0.000450756
    -0.267385     -0.174006      0.226757     0.0243464      0.132991     -0.030362   -0.00797536    -0.0136629  -0.000301491  -0.000320107   4.9593e-005   0.000149682
    -0.232503     -0.166041      0.212294     0.0191275       0.13147    -0.0256704   -0.00750089    -0.0150921   0.000205352   0.000149943   0.000135811  -0.000448806
    -0.199592     -0.145697      0.218463     0.0226695      0.125719    -0.0213355   -0.00770528    -0.0130555  7.52767e-005   1.0067e-005 -3.90797e-005  1.12022e-005
    -0.184361     -0.136515      0.218103     0.0264152      0.117245    -0.0164039   -0.00588564    -0.0131152   0.000596257   0.000366749  -0.000591906    0.00067064
    -0.157447      -0.12621      0.216609      0.023085      0.107199    -0.0150191   -0.00645525     -0.011731  -0.000318216  -0.000317138  5.98615e-005   0.000139018
    -0.111347     -0.101337      0.215367     0.0226689      0.095973    -0.0146946   -0.00421521    -0.0111932   8.8001e-005   -0.00046341  -0.000757114   0.000502474
   -0.0950461    -0.0829158      0.220835     0.0258738     0.0982804    -0.0122157   -0.00247715    -0.0112777   0.000209482  -0.000311999  -0.000573084  4.38871e-005
    -0.088231    -0.0736847       0.22991     0.0242303     0.0964086   -0.00969641   -0.00433009    -0.0105225 -7.06882e-005  -0.000129889  -0.000203486   0.000471262
     -0.06255    -0.0714938      0.223473     0.0297232     0.0852396  -0.000799136   -0.00412492    -0.0101706 -7.28236e-005  -0.000130821  -0.000205564   0.000465108
   -0.0379638    -0.0573188      0.225122     0.0324662     0.0800055    0.00786788   -0.00435833    -0.0085641   0.000161538  -0.000456446   0.000545892  -0.000220924
   -0.0227289    -0.0471457      0.230601      0.029366     0.0798074    0.00788493   -0.00442185   -0.00736369   0.000419866   -0.00026974   0.000273781   0.000106981
  -0.00261261    -0.0472366       0.22739     0.0294759     0.0767933     0.0106823   -0.00312781   -0.00595243   0.000571523  -0.000591101    -0.0002718   0.000135498
   0.00916093    -0.0398056      0.218121     0.0325824     0.0745115     0.0152394   -0.00372256   -0.00675453  -0.000190639  -0.000622657  -0.000468517   0.000154485
    0.0273746    -0.0343147      0.207944     0.0326545     0.0692611     0.0203959   -0.00346569   -0.00464449   0.000318249  -0.000134876  -0.000385945  -0.000450702
    0.0525802    -0.0302364      0.214107     0.0305338     0.0605301     0.0247017   -0.00295787   -0.00420348  -0.000724149  1.70386e-005  -0.000213715 -2.92805e-006
    0.0755995    -0.0296416      0.210567     0.0284389     0.0529484     0.0296801   -0.00338385   -0.00315158  -0.000465204   0.000200129  -0.000489618   0.000319064
    0.0946948    -0.0277041      0.195251      0.025831     0.0467945     0.0313044   -0.00281674   -0.00373094   0.000299135  -0.000773019  6.20438e-006  -0.000216015
     0.107475    -0.0260587      0.192096     0.0255574     0.0445579     0.0336682   -0.00280753   -0.00270719   0.000559751  -0.000590128  -0.000269524   0.000110141
     0.124292    -0.0309584      0.186354     0.0242502     0.0404557     0.0380976   -0.00408155   -0.00240842   0.000154847   0.000192491   0.000162293  -0.000506163
     0.132636    -0.0327411      0.170243     0.0225596     0.0381822     0.0398741   -0.00325449   -0.00282084   0.000406744  -0.000272822   0.000274791  7.12187e-005
     0.135506    -0.0300828      0.162249     0.0226072     0.0396072     0.0409052   -0.00169275   -0.00237091   0.000265679   0.000686588   0.000430923  -0.000207287
     0.142695    -0.0277129      0.166686     0.0252067     0.0374699     0.0446299   -0.00196859  -0.000910779   0.000254274  5.86468e-005   0.000821364  3.67575e-005
     0.157645    -0.0205879      0.177018     0.0270629     0.0341575     0.0509296   -0.00333202  -0.000877587   0.000250983  6.36813e-005   0.000823451  3.21613e-005
     0.149471    -0.0205606      0.199035      0.029651     0.0404819     0.0454002   -0.00367994 -7.41726e-005    0.00029413  -0.000754412  9.92226e-006  -0.000230521
     0.148749    -0.0215901      0.202724     0.0306594     0.0407397     0.0427346   -0.00354768   -0.00134164   0.000293634  -0.000758879  1.01579e-005  -0.000226086
     0.166833    -0.0154373      0.178224     0.0278505     0.0351154     0.0455967   -0.00171013  -0.000890867   0.000650691  4.00778e-005   0.000638282   -0.00085746
     0.164979    -0.0120398      0.166021      0.029615     0.0381098     0.0460896    0.00114645   0.000246389   0.000692491   0.000197996  -0.000478485  -0.000607657
     0.167853    -0.0141543      0.168391     0.0313742     0.0377558     0.0484699   0.000243597   -0.00127869   0.000681522  -0.000443473 -8.86026e-005  -0.000358726
     0.170375    -0.0141537      0.176864     0.0299545     0.0370153     0.0477158   -0.00169046 -4.26237e-005   0.000635961    0.00039689   0.000729076 -9.65905e-005
      0.17232    -0.0124748      0.174647     0.0294788     0.0372119     0.0471304   -0.00102752  -0.000113438   0.000788615   6.9855e-005   0.000183145 -6.37882e-005
     0.175273    -0.0141359      0.175503     0.0278051     0.0355798     0.0460044 -8.85541e-005   -0.00267306  2.65717e-005  3.23056e-005 -1.31674e-005 -3.84505e-005
     0.181546    -0.0135286      0.177713     0.0265453     0.0332691     0.0454183  -0.000390426   -0.00214936   0.000553161  -0.000595179  -0.000265365   0.000105392
     0.186529    -0.0146982      0.170061     0.0272115     0.0325255     0.0452999    0.00112318   -0.00185338   0.000416605  -0.000626026   0.000189577  -0.000686735
      0.18762    -0.0129536      0.172158     0.0277941     0.0336544     0.0475947  -0.000193337   -0.00205587   0.000400845  -0.000271539   0.000280727  7.34311e-005
     0.190134    -0.0105623      0.160305     0.0288736     0.0353386     0.0469886   0.000360087   -0.00188859 -8.22897e-005  -0.000474598  -0.000283138  -0.000337603
     0.187574    -0.0225009      0.149651     0.0249852     0.0340146     0.0436485    0.00235942   -0.00130583  -0.000222007   0.000483878  -0.000129472  -0.000616963
     0.191439    -0.0279761      0.151414      0.022138     0.0314399     0.0432715    0.00155448  5.11212e-005  2.84583e-005  3.43064e-005 -1.57505e-005 -4.42607e-005
     0.195499    -0.0267344      0.154547     0.0221968     0.0320378      0.043889 -6.48914e-006    -0.0017563  4.22503e-005  -0.000324567  -0.000105238  -0.000805277
     0.199056    -0.0342084      0.158776     0.0179069     0.0306711     0.0438543  -0.000758632   -0.00171803   0.000139897  -0.000454001   0.000555308  -0.000261986
     0.204696    -0.0327698      0.155711     0.0165883     0.0286745     0.0448636  -0.000436462   -0.00120564   0.000149896    0.00018318   0.000165283  -0.000512293
     0.208811    -0.0273559      0.154438       0.01763     0.0318688     0.0477048   0.000421671   -0.00185485  -0.000611104   0.000153755 -2.98936e-005  -0.000489924
     0.213464    -0.0299779      0.150644     0.0166203     0.0324048     0.0473978   0.000491701   -0.00161952   2.6094e-005   2.7352e-005 -1.27647e-005 -4.65219e-005
     0.222809    -0.0239566      0.154753     0.0181147     0.0302999     0.0466449    0.00128125    -0.0013858  1.35946e-005  -0.000607264   0.000378955    0.00020393
     0.226529    -0.0279402      0.159619     0.0156174     0.0298885     0.0472145   0.000404654   -0.00209167  2.31448e-005  2.83663e-005 -1.05282e-005 -4.59602e-005
      0.22333    -0.0330478      0.153311     0.0158558     0.0299493     0.0465414     0.0015752   -0.00248551  -0.000112513 -4.78654e-006   0.000443484  -0.000837477
     0.230621    -0.0250784      0.148311      0.020297     0.0319748     0.0476237    0.00196181  -0.000700064 -8.38421e-005  -0.000475318  -0.000281493  -0.000342678
     0.228734     -0.022327      0.147736      0.021629      0.037205     0.0461871    0.00160261   -0.00158662  2.55139e-005  2.57821e-005 -1.02779e-005 -4.02599e-005
      0.21912    -0.0187556      0.151411     0.0245815     0.0412719     0.0453833    0.00424235   -0.00290429  4.23961e-005  -0.000334565  -0.000100559  -0.000793582
     0.223305    -0.0150112      0.152761     0.0257421     0.0436822     0.0442773     0.0030483   -0.00393616    0.00013961  -0.000469076   0.000561222  -0.000244353
     0.225703    -0.0276802      0.147281     0.0222705     0.0422914     0.0423436    0.00225528   -0.00449397  -0.000468194  -0.000823488  -0.000183251  -0.000195108
     0.229609    -0.0305916      0.141638     0.0192181     0.0398177     0.0395817    0.00407615   -0.00429564  -0.000468068  -0.000826481   -0.00018365   -0.00019337
     0.234168    -0.0354175      0.136541     0.0173331      0.041299     0.0389664    0.00322829   -0.00359755  -0.000457068  -0.000187952  -0.000573864  -0.000444676
     0.239908    -0.0473821      0.127837     0.0124359     0.0374484     0.0375074    0.00400514   -0.00507208  -0.000609357   0.000126658 -2.93762e-005   -0.00047549
     0.249785    -0.0394012      0.119339     0.0136948     0.0360019       0.03643    0.00553188   -0.00405758   0.000831922   -0.00080396  -0.000631364   -0.00031652
     0.251514    -0.0385802      0.120156     0.0135534     0.0391368     0.0361116    0.00369977   -0.00390989   0.000427653 -1.89637e-005  -0.000197792  -0.000927719
     0.251281    -0.0466354      0.125055     0.0103597      0.038442     0.0354686    0.00372217    -0.0048121   -0.00034421  -0.000683161 -4.24252e-006  -0.000659396
     0.268022    -0.0410259      0.144299     0.0114143     0.0332401     0.0363068    0.00197609   -0.00292731   0.000797928  -0.000310162  9.85719e-005  -0.000819278
     0.292244    -0.0365944      0.145858    0.00920559     0.0251184     0.0357025    0.00111825    -0.0022216   0.000141017   0.000173554   0.000173969  -0.000505095
     0.290957    -0.0418526       0.14865    0.00721767     0.0259151     0.0337496  1.87408e-005   -0.00229719  -0.000245024  -0.000155636   0.000270955  -0.000372166
     0.286975    -0.0469981      0.146836    0.00551654     0.0275602     0.0328036   0.000371303   -0.00249069   0.000294765  -0.000151945   -0.00037274  -0.000474362
     0.280654    -0.0548177      0.130423    0.00458952     0.0309747     0.0310259    0.00185942  -0.000950551 -8.70202e-005  -0.000482965  -0.000278393  -0.000340676
     0.275937    -0.0593706      0.153903    0.00530431     0.0333253      0.031408   0.000792867   -0.00263814   0.000530604    0.00050575  7.60232e-005  -0.000638043
     0.276877    -0.0645518      0.135007    0.00330874      0.033841     0.0299537    0.00176067   -0.00257235   -0.00046137  -0.000183005  -0.000572056    -0.0004522
     0.291058    -0.0538811      0.135142     0.0025097     0.0280628     0.0288861   0.000554998   -0.00282954   0.000404567   0.000346962  -0.000103521  -0.000174644
     0.331087    -0.0252504      0.182693    0.00302027     0.0123499     0.0316383  -0.000128826   -0.00353941   0.000493564  -0.000760686   0.000865779  -0.000141816
     0.324597    -0.0308677      0.154671      0.004764     0.0150678     0.0276685    0.00254727   -0.00315132   0.000384917  -0.000286157   0.000292148  7.88139e-005
     0.303466    -0.0405574      0.127043    0.00658005     0.0282588     0.0252246    0.00534565   -0.00440076  -0.000743156 -2.35307e-005  -0.000201493 -6.09617e-006
     0.296432    -0.0414891      0.126433    0.00713375     0.0310947     0.0254697    0.00686519   -0.00470384  -0.000117618 -2.92346e-005   0.000450382  -0.000816299
     0.307114     -0.035434      0.122908    0.00923818     0.0264323     0.0237772    0.00694694   -0.00430673  -0.000619146   0.000125368 -2.22484e-005  -0.000466119
     0.324196    -0.0279765      0.118245     0.0090729     0.0192506     0.0206015    0.00969122   -0.00618765  -0.000479996  -0.000849174  -0.000177408  -0.000178188
     0.323634     -0.032684      0.126248    0.00692044     0.0181819      0.018709    0.00923027   -0.00594548   0.000166667  -0.000334631  -0.000550079  1.61206e-005
     0.344216     -0.016442      0.166002    0.00905868     0.0111236     0.0213846    0.00514592   -0.00535776  -0.000767187  -0.000650662   0.000196386   0.000246755
     0.340346    -0.0206516      0.158557    0.00941148     0.0128272     0.0191294    0.00514274   -0.00577796   3.4572e-005  -0.000470054  -0.000724351   0.000475625
     0.326563    -0.0318625      0.153059    0.00881912     0.0151206     0.0150243    0.00714615   -0.00546134  -0.000142934   0.000329551   0.000545012 -4.74989e-005
     0.326551    -0.0273648        0.1709     0.0111172     0.0177495       0.01419    0.00675454   -0.00675502   0.000496731  -0.000785281   0.000864516  -0.000112533
      0.31971     -0.041708       0.16684    0.00708057     0.0183862     0.0118901    0.00564974    -0.0069115   0.000232137  2.38119e-005   0.000839115  6.86647e-005
      0.32238    -0.0472233      0.183739    0.00466441     0.0139808     0.0103647    0.00472573   -0.00655054  -0.000145697   0.000337565   0.000546611 -4.87571e-005
     0.323239    -0.0462649      0.188107    0.00389736     0.0116961    0.00838427    0.00356784    -0.0079138   0.000227726  2.84812e-005   0.000840513  6.69245e-005
     0.342818    -0.0492457      0.170361 -6.54349e-005    0.00372066    0.00527036    0.00402483   -0.00570917  -0.000257794  -0.000167768    0.00027596  -0.000351115
     0.357105    -0.0413554      0.170051    0.00245795   0.000684219    0.00724238    0.00388775    -0.0041946   0.000268202  -0.000791708  2.42158e-005  -0.000208384
     0.349642    -0.0296427      0.178715    0.00686349     0.0040905    0.00402914    0.00683886   -0.00533435   0.000501217  -0.000140261   0.000475623  -0.000362078
     0.351099    -0.0215246      0.189371    0.00935648    0.00636795    0.00147458    0.00879872   -0.00685964   0.000124485   0.000160397   0.000184882  -0.000466746
     0.359293    -0.0121039      0.197694     0.0102345    0.00320533   0.000533556     0.0057471    -0.0058569   0.000257917   0.000198794  -0.000268577    0.00032216
     0.368489    -0.0206703      0.202469    0.00883652   -0.00107712    0.00124555    0.00707222   -0.00699141   0.000366048   0.000698695  9.01875e-007   0.000621796
     0.359978    -0.0354547       0.19543    0.00629937   -0.00165711  -0.000428519    0.00805874   -0.00755916   0.000122593   0.000159814   0.000183374  -0.000469711
      0.35778    -0.0346234      0.183413     0.0050402  -0.000941136   -0.00299969    0.00805214    -0.0074256   0.000498857  -0.000149316   0.000475983  -0.000354654
     0.364347    -0.0284849      0.184486     0.0095653    0.00342589   -0.00135572    0.00826865    -0.0072387    0.00103741  -0.000142456  -0.000165546  -0.000454915
     0.351519    -0.0233025      0.189682     0.0166046    0.00915657   -0.00161259     0.0084939   -0.00694327   0.000376447  -0.000296061   0.000297995   0.000116001
     0.342765    -0.0192739      0.199047     0.0206145     0.0126127   -0.00142464    0.00907057   -0.00676765   0.000377102  -0.000292325   0.000298614   0.000119155
     0.359933    -0.0112519      0.204208     0.0210302     0.0116733    0.00124632    0.00825982   -0.00570567   0.000635811   -0.00010551  2.52871e-005   0.000445494
     0.378619   -0.00609788      0.200963     0.0184415    0.00534715  -0.000286171    0.00757749   -0.00491764  -0.000167984  -0.000287685   0.000946225    0.00021537
     0.374988   -0.00922635      0.214417     0.0178432    0.00742207   -0.00304971    0.00688072   -0.00517644   0.000879798   0.000204368   0.000387132  -0.000483971
      0.38452    -0.0206394      0.204478     0.0141026     0.0101693   -0.00256061    0.00870137   -0.00589659   0.000258019   0.000198592  -0.000265568   0.000331202
     0.377379     -0.025046      0.190979     0.0126999     0.0174271   -0.00240132    0.00854005   -0.00439513   0.000109006   0.000526198   0.000279848   0.000297324
     0.366909    -0.0225802      0.203639     0.0172952     0.0228563   -0.00457849    0.00684368   -0.00413942   0.000761321  5.43176e-005   0.000207488  -1.9024e-005
     0.377275    -0.0323288      0.196847     0.0132682     0.0182994   -0.00522513    0.00671329   -0.00573406    0.00048369    0.00021856   0.000573133    0.00041298
     0.413046    -0.0200902      0.226895     0.0115808    0.00713099   -0.00221031    0.00330556   -0.00464849  8.76784e-005 -9.39476e-005   0.000676199   0.000537913
     0.426218    -0.0180008      0.241444     0.0103212     0.0057917   -0.00699682    0.00339857   -0.00372497   0.000470005   0.000246028   0.000582837   0.000405177
     0.412049    -0.0521853      0.220579  -0.000353404    0.00976654   -0.00840763     0.0042231   -0.00405657   0.000254364   0.000216379  -0.000262278   0.000317787
      0.43539    -0.0458194      0.236712   -0.00182705    0.00261259   -0.00197061    0.00172883   -0.00144756   0.000238448  -0.000400467   0.000131149   0.000553413
     0.430242    -0.0384299      0.215403    0.00452973      0.007041    -0.0020167    0.00710128   -0.00232847    0.00112836  -0.000239983   0.000505066  8.22773e-005
     0.429032    -0.0400615      0.209344    0.00573297     0.0169131   -0.00196699    0.00892069   -0.00385322   0.000370061   -0.00027574   0.000309507    0.00011009
     0.435472    -0.0312782       0.23316    0.00844712     0.0195953    -0.0021909    0.00353769   -0.00426642   0.000473955   0.000240852   0.000584168   0.000405183
     0.448719    -0.0271951      0.237815    0.00423836     0.0144393   -0.00345767    0.00468954   -0.00318499  -1.3275e-005  4.67154e-005  2.29391e-005 -9.05966e-006
     0.487933   -0.00757902      0.272921    0.00415155    0.00237348   -0.00240663    0.00187634   -0.00346299   0.000127354  -0.000265125  -0.000515554   1.8829e-005
     0.495982    0.00545033      0.293068    0.00922621   0.000925751   -0.00291147  -1.6929e-005   -0.00272533   0.000247119  -0.000101375  -0.000332562  -0.000445282
     0.483504    0.00939138      0.279174     0.0148963     0.0113285   -0.00262901    0.00272613   -0.00454219   0.000360868    0.00038817 -6.35463e-005   -0.00013547
     0.475131     0.0104659      0.270666     0.0183213      0.021947   -0.00307821    0.00561098   -0.00428925 -2.05859e-005  5.31066e-005  3.33697e-005  6.23254e-006
     0.474336     0.0160382       0.27172     0.0198509     0.0229877   -0.00678052    0.00690762   -0.00462681    0.00036485   0.000381661 -6.24487e-005  -0.000121899
     0.466253    0.00863463      0.254146     0.0192898     0.0289512   -0.00927687    0.00788523   -0.00353677  -0.000282975   0.000859053  8.87328e-006   0.000197165
     0.436134    -0.0232269      0.211264     0.0128982     0.0411237    -0.0159149     0.0119705   -0.00489699  -0.000542909  1.82835e-005   0.000667651   0.000123916
     0.421473    -0.0443295      0.188261    0.00679584     0.0451128    -0.0190781     0.0129054   -0.00577967   0.000267891  -0.000799456  4.32682e-005  -0.000162322
     0.448583    -0.0349506      0.208457    0.00489149     0.0335256    -0.0173477     0.0104059   -0.00464714  -0.000283407   0.000198924   0.000390677   0.000446042
     0.485623    -0.0118021      0.247327     0.0108814     0.0238194    -0.0141272    0.00665809   -0.00441608   0.000243538   0.000222733  -0.000244817   0.000339408
     0.492793   -0.00597702      0.242287     0.0116252     0.0253927    -0.0138512    0.00700894   -0.00543666   0.000242924   0.000216114  -0.000243576   0.000342892
     0.477801    -0.0182535      0.220758    0.00912827     0.0323699    -0.0169897     0.0110003   -0.00526679   0.000624946 -9.99216e-005  4.64625e-005   0.000463149
     0.488597    -0.0198201      0.238045    0.00714521     0.0281672    -0.0180069    0.00857222   -0.00534584 -1.62402e-005  3.40097e-005  3.16497e-005   1.5211e-005
      0.50068    -0.0163185       0.24493    0.00383734     0.0248139    -0.0194003    0.00559168   -0.00518985   0.000241242   0.000219255  -0.000242097   0.000340108
      0.49176    -0.0284859      0.234561    0.00159867     0.0311259    -0.0211742    0.00820799   -0.00506355  -0.000416845  5.68194e-005   0.000219782   0.000910411
     0.487812    -0.0352522      0.220749    0.00163801     0.0361006    -0.0214743    0.00949998   -0.00494618   -0.00081698   0.000833613   0.000650444   0.000302853
     0.490821    -0.0305841      0.213582    0.00299048     0.0399313    -0.0235313     0.0102635   -0.00531869 -2.67921e-005   0.000377517   0.000122185   0.000783041
     0.490167    -0.0347753      0.211124    0.00214893     0.0426504    -0.0225933     0.0104644   -0.00603099  -0.000134552  -0.000131457  -0.000148036   0.000485612
      0.49122    -0.0307737      0.209995     0.0047467     0.0428418    -0.0200826     0.0123711   -0.00588817   0.000513705   0.000377345    -0.0005213   0.000683457
     0.509998    -0.0126687      0.234244     0.0100149     0.0419905    -0.0224701     0.0115405   -0.00540641  -0.000391147   0.000335615  -0.000256089 -8.63741e-005
     0.530302    0.00165762      0.245882     0.0133428     0.0381114    -0.0205791    0.00921802   -0.00497764 -6.50632e-005   0.000868418   0.000857338   0.000292162
     0.531747    0.00832065      0.244898     0.0134377     0.0399039    -0.0213432      0.010198   -0.00482691  -0.000287951   0.000848076   1.9078e-005   0.000211983
     0.541574     0.0189184      0.260022      0.017195     0.0386193    -0.0201226    0.00991493   -0.00486018   0.000637822   0.000200278  -0.000418248  -0.000537117
     0.543998     0.0188607      0.261966     0.0192934     0.0417404    -0.0177505    0.00945418   -0.00563358   0.000736481  6.64637e-005   0.000242562  1.06972e-005
     0.525484    0.00906327      0.250276     0.0156075     0.0472159    -0.0200966      0.013042   -0.00504985 -8.63913e-006   0.000672559  -0.000346655  -0.000214093
     0.517897    0.00372294      0.236023      0.015208     0.0504017    -0.0229756     0.0143685   -0.00531288  -0.000292906   0.000202736   0.000408343   0.000470494
     0.528829   0.000161822      0.230122      0.016569     0.0505622    -0.0235313     0.0169813    -0.0058965 -4.10168e-005  -0.000261276   0.000521993    0.00105389
     0.530205    0.00870578      0.231948     0.0174078     0.0485597    -0.0236499     0.0153469   -0.00560289   8.1159e-005  -0.000106383   0.000702433   0.000588016
      0.53183    0.00508397      0.232648     0.0161876     0.0491742    -0.0229155     0.0153601   -0.00630478   0.000728809   0.000400967    0.00032938   0.000783875
     0.534539    0.00152731        0.2302     0.0193504     0.0512759    -0.0219161     0.0153906   -0.00729499  9.28518e-005   0.000521885   0.000311565   0.000342348
     0.524219    0.00162149      0.213324     0.0229679     0.0596244     -0.022286      0.014534     -0.004319  -0.000788086    0.00035384 -6.61337e-005     0.0008225
     0.527745    0.00132664      0.212446        0.0195     0.0598602    -0.0249932     0.0161849   -0.00469969  -0.000511529   0.000176211  -0.000431823   0.000393498
     0.533514    0.00304808      0.216579     0.0194339     0.0587494    -0.0252507     0.0162894   -0.00496632  -0.000898752  -0.000154513  -0.000333935   0.000528511
     0.530732   -0.00371593      0.218887     0.0176969     0.0571303     -0.026167     0.0165936   -0.00591567  -0.000665357   0.000497768   0.000114595   0.000363964
     0.534523    -0.0038722      0.236366     0.0178792     0.0541655    -0.0260328     0.0144906   -0.00695181  -0.000184396   0.000700415   0.000679554   0.000775291
     0.527407    -0.0130068      0.224962     0.0174434     0.0590786    -0.0257366     0.0156289   -0.00485392   0.000472182   0.000225463   0.000603946   0.000454464
     0.527225    -0.0110719       0.22143     0.0165686     0.0590804    -0.0201443     0.0172485   -0.00364484   0.000359915    0.00071299  3.38827e-005    0.00066646
     0.519813    -0.0109765      0.211037     0.0175697     0.0634682    -0.0242633     0.0192792   -0.00656344  -0.000660777   0.000489651    0.00011289   0.000368209
     0.514589    -0.0239939      0.187204     0.0151466     0.0670797    -0.0301361     0.0217661   -0.00756699 -1.92491e-005   0.000348408   0.000126751    0.00081901
     0.527483     -0.012063      0.195508     0.0178452     0.0629594    -0.0294648     0.0199596   -0.00545157  -0.000393744   -0.00032163   0.000135394   0.000185749
     0.522395    0.00366814      0.215412     0.0218394     0.0632644    -0.0282572     0.0175009   -0.00666983  -0.000288507   0.000187085   0.000408524   0.000485697
     0.529418     0.0136302      0.231122     0.0214195     0.0628359    -0.0278075     0.0165748   -0.00763777  -3.0727e-005   0.000368528   0.000136056   0.000816978
     0.536035     0.0229653      0.220186     0.0298879     0.0618862    -0.0254301     0.0190121   -0.00641159  -0.000513681   0.000168957  -0.000428681   0.000407531
     0.530434     0.0268766      0.210396      0.031586     0.0659149    -0.0217769     0.0196162   -0.00562897   0.000402733  -0.000131364  -0.000779205   0.000418009
     0.516708     0.0261836      0.207367     0.0294982      0.071939    -0.0250932     0.0202023   -0.00657287  -0.000509111   0.000162787  -0.000429216   0.000411445
     0.506505     0.0233888      0.209079     0.0296477     0.0721238    -0.0307869     0.0216895   -0.00726251  -0.000508213   0.000158889  -0.000430072   0.000417759
     0.512185      0.028654      0.215413     0.0290124     0.0691879    -0.0285836     0.0211396   -0.00844345  -0.000135334  -0.000149322  -0.000135339   0.000531968
     0.498058     0.0193119      0.206778     0.0274153     0.0724874    -0.0261153     0.0194849   -0.00655282  -0.000615884  -0.000341482  -0.000701557   0.000110939
     0.501225    0.00659437      0.210907       0.02099     0.0705346    -0.0280641     0.0177916    -0.0057398  -0.000132393  -0.000135787  -0.000138204   0.000517065
     0.508304     0.0159826      0.208856      0.023551     0.0710752    -0.0262722     0.0212813   -0.00647516  -0.000784679   0.000336341 -6.34547e-005   0.000842509
     0.526783     0.0380625      0.237234     0.0283528     0.0639099    -0.0219344     0.0167617   -0.00454069   0.000245112   0.000210727  -0.000228544   0.000380993
     0.559468     0.0586963      0.292961     0.0274332     0.0471463    -0.0192584     0.0117528   -0.00398399  -0.000140196  -0.000447142   -0.00021378   -0.00025712
     0.545259     0.0462962      0.260909     0.0213996     0.0483033     -0.020656     0.0140953   -0.00474988 -1.01219e-005  -0.000312883 -3.93895e-005  -0.000719711
     0.525311      0.034457      0.229958     0.0216743     0.0544669    -0.0183095     0.0159182   -0.00454506   0.000505974   0.000387877  -0.000507301   0.000701979
     0.515365     0.0265623      0.230118     0.0198463     0.0600988    -0.0217159      0.017512   -0.00550198  -0.000128458   0.000508238  -0.000524641   0.000263779
     0.510595     0.0174297      0.230134     0.0159651     0.0615328    -0.0201398     0.0158869    -0.0047562  -0.000290571   0.000201959   0.000411099   0.000474329
     0.499401     0.0209717      0.251701     0.0221298     0.0658014    -0.0161096     0.0132646   -0.00459453  -0.000542129   0.000669968   0.000298299  -0.000106212
     0.488603     0.0103461       0.24101     0.0177574     0.0651116    -0.0197056     0.0132001   -0.00437142  9.71771e-005   0.000541064   0.000312613   0.000336131
     0.499184     0.0191777      0.245303     0.0167092     0.0598817    -0.0184208     0.0124717   -0.00264735  9.40139e-005   0.000550836   0.000314338   0.000330752
     0.478383       0.01449       0.25076     0.0196195     0.0646382    -0.0181937     0.0117965   -0.00310087  -0.000125809    0.00053179  -0.000527085   0.000249012
     0.449978   -0.00344434      0.246346     0.0161845     0.0730856    -0.0193645     0.0112189   -0.00276425  -0.000119862   0.000532376  -0.000530329   0.000246779
     0.454001     0.0161731      0.253337     0.0230904     0.0756838    -0.0140672    0.00956765   -0.00277946  -0.000259502   0.000508555 -7.17605e-005  -0.000546815
     0.449536     0.0217996      0.206723     0.0230306     0.0778098    -0.0139539     0.0148275   -0.00485778   0.000106324   0.000525708    0.00030803   0.000340536
     0.451946     0.0297667      0.182707     0.0227168     0.0775644     -0.014466     0.0197395   -0.00319432   0.000360261  6.31231e-005   0.000420722   0.000922921
     0.453073     0.0361266      0.177747     0.0241267     0.0776599    -0.0104301     0.0180009   -0.00335304  -0.000510224  -0.000467711 -4.58616e-005    0.00064093
     0.437215     0.0207199      0.169159     0.0207469     0.0785304   -0.00956172     0.0178333   -0.00248685  -0.000272944   0.000189356   0.000399674   0.000470016
     0.441052     0.0218186      0.174497      0.016855     0.0736182    -0.0101011     0.0178141   -0.00324744  1.61374e-006  1.36289e-005  3.36758e-005  3.68739e-005
     0.440447     0.0237581      0.169262     0.0163692     0.0712615    -0.0102571     0.0175414   -0.00213359   -0.00103649    0.00016556   0.000203196   0.000486163
     0.429018     0.0198225      0.181699     0.0170909     0.0736099    -0.0082935     0.0142425   -0.00305106  -0.000236468   0.000354036  -0.000716323   0.000709541
     0.411561     0.0105625      0.190984     0.0152648     0.0735057   -0.00759338     0.0123262   -0.00195855    0.00052603   0.000389269  -0.000521594    0.00068289
     0.408634     0.0102577      0.202998      0.014517     0.0697806   -0.00946588     0.0126064   -0.00112315   0.000138724  6.59879e-005  -0.000424416   0.000815983
        0.404     0.0110358      0.195124     0.0135781     0.0703455   -0.00818578     0.0121264   -0.00174143   0.000763415  5.81271e-005   0.000226943   1.8671e-006
      0.38515   -0.00664523      0.165851    0.00373419     0.0694476    -0.0116226     0.0134204   -0.00253699   0.000382933  -0.000288201   0.000318243   0.000134637
     0.370783   -0.00409921      0.175334      0.006406     0.0650302    -0.0129412      0.013158   -0.00193839  -0.000862866   -0.00050653   -0.00044327  -0.000258947
     0.373887    0.00259166      0.197259     0.0122128     0.0622294   -0.00735519     0.0116111   -0.00131651  -0.000811021   0.000203971    0.00103469   0.000550868
     0.389035    0.00536417        0.2009    0.00816292     0.0579467   -0.00251862    0.00867968  -0.000384864  1.05039e-006  4.36194e-005  2.65736e-005  5.13779e-006
     0.388952      0.017478      0.202648     0.0107313     0.0519266    -0.0025459    0.00921635    0.00136676  -0.000401888  7.40331e-005   0.000213954   0.000899668
     0.373523     0.0164962      0.199362     0.0130437     0.0541153   -0.00246469     0.0106392    0.00127462  2.16765e-006  4.87052e-005  2.44903e-005  6.25365e-006
     0.335211   -0.00327765       0.15874      0.011695     0.0655408   -0.00531838     0.0130143   0.000212211  -0.000219281  -0.000628481  -0.000433009   0.000177276
     0.325786    -0.0131033      0.147762    0.00672178      0.063351   -0.00577418     0.0121446   0.000160719  -0.000468478  -0.000175069  -0.000549905  -0.000405549
     0.336522    -0.0101801      0.182681    0.00538655     0.0561566   -0.00472616     0.0100661    0.00236011   0.000509224  -0.000106097   0.000490114  -0.000350838
     0.324189   -0.00259644       0.18412     0.0124379     0.0564734   -0.00105836    0.00835059    0.00203014   0.000509912  -0.000105188   0.000488506   -0.00035176
     0.315338     0.0049464      0.173929      0.012975     0.0543684  -0.000281419    0.00759621    0.00191847   0.000538845  -0.000585281  -0.000238782   0.000142082
     0.315503     0.0160886      0.184126     0.0100039     0.0507389   -0.00489724     0.0117451    0.00187003   0.000132679   0.000196043    0.00019636  -0.000459358
     0.326971      0.035634      0.213371     0.0147724     0.0488712  -0.000837808    0.00847304    0.00309978  -0.000259534  -0.000115792   0.000298634  -0.000330193
     0.320496     0.0302358      0.208885     0.0162974     0.0477935   0.000847941    0.00729942    0.00332861   0.000335157   0.000588808    0.00112948   0.000377191
     0.292599     0.0125949      0.181895     0.0119315     0.0514075   -0.00147327    0.00925385     0.0030893   0.000896732    0.00022851   0.000389365  -0.000486989
     0.271046  -0.000310208      0.165679    0.00920085     0.0550004   -0.00364473    0.00970222    0.00233225   0.000130154  -0.000442717    0.00057878   -0.00021766
     0.244834    -0.0197284      0.133606     0.0060779     0.0597758   -0.00433133      0.013681      0.002349   0.000525463  -0.000126862   0.000474763  -0.000349125
     0.233673    -0.0225906      0.111772    0.00558745     0.0625236    -0.0055675       0.01608   0.000207712  -0.000117967  -0.000656708   0.000844828  -0.000537318
     0.244754    -0.0102043      0.117209    0.00747766      0.055462   -0.00239778     0.0161063    0.00253213   -0.00049644  -0.000338989   0.000552674   -0.00065723
     0.235249    -0.0227882      0.122006    0.00310695     0.0523507   -0.00230488     0.0136432    0.00389433   0.000304248  -0.000144052  -0.000368839  -0.000439977
     0.238793     -0.024133      0.140471  -0.000522153     0.0476392   -0.00291196     0.0108876    0.00415038 -8.55482e-005  -0.000464898   -0.00027012  -0.000311857
      0.23975    -0.0172467      0.174906    0.00202945      0.045585   -0.00229045    0.00697503    0.00502512     0.0001318  -0.000425343    0.00057334  -0.000234326
     0.228698    -0.0303449      0.177387   -0.00173906     0.0438595   -0.00244031    0.00537494    0.00388199   0.000296035  -0.000117202  -0.000365498  -0.000454795
     0.237329    -0.0196999       0.18246   -0.00156068     0.0360345    0.00153452    0.00803511    0.00502836  -0.000107364 -9.05612e-005  -0.000177328   0.000440252
      0.23213   -0.00675247      0.192024    0.00200444      0.037078    0.00176477    0.00582347    0.00554317  -0.000246819  -0.000110704   0.000280305  -0.000354474
     0.220555   -0.00914718      0.184141    0.00202156     0.0386376 -1.86469e-005    0.00803187    0.00412612   6.8976e-006  -0.000578839    0.00039233   0.000230091
     0.210658    -0.0170324      0.171312  -0.000860178     0.0384528   0.000630565     0.0100167    0.00531335   0.000145351   0.000207719   0.000178507  -0.000484387
     0.206082    -0.0229882      0.159518   -0.00567266     0.0365982  -0.000807582     0.0095462    0.00323888  2.19117e-005  4.30881e-005 -2.81064e-006 -1.97647e-005
      0.20384    -0.0178293       0.16849   -0.00323519     0.0375979  -0.000824977     0.0103085    0.00265885  2.12097e-005  4.29904e-005 -1.61477e-006 -1.58104e-005
     0.201384    -0.0139204      0.166653   -0.00220389     0.0396265 -7.30977e-005    0.00963959    0.00300177   0.000422643  2.20985e-005  -0.000188682  -0.000912962
     0.190626    -0.0257752      0.141092   -0.00489886     0.0407846   -0.00196741     0.0116931    0.00267417  -8.2302e-005  -0.000472592  -0.000275917  -0.000313166
     0.176849    -0.0381737      0.123314   -0.00748913     0.0436196   -0.00361514     0.0142425     0.0042285  -0.000467341   0.000184582  -0.000482609   0.000334279
     0.185107    -0.0220945      0.133782   -0.00625482     0.0402236   -0.00216806       0.01264    0.00375937  -0.000205497  -0.000622661  -0.000456056   0.000149632
     0.196318   -0.00746637      0.149659   -0.00568115      0.034923  -0.000987857      0.011842    0.00247626  -0.000115206  5.81867e-006   0.000452755  -0.000807947
     0.192574    -0.0110129      0.158402   -0.00699935     0.0329764   -0.00312456     0.0101177    0.00266926  2.09752e-005  3.93879e-005 -2.95184e-006 -1.70553e-005
     0.178485    -0.0219664      0.151845   -0.00727051     0.0367675   -0.00404027    0.00917437    0.00209244  -0.000390075   0.000181333   0.000816944  -0.000378566
     0.162576    -0.0399141       0.13156    -0.0131079     0.0411155   -0.00478342    0.00976758    0.00321496    -0.0004693   0.000186892  -0.000482663   0.000327708
     0.153658    -0.0427233      0.133057    -0.0147908     0.0434625   -0.00577434    0.00975621    0.00352166   0.000526191   0.000870256   0.000163159   0.000142015
     0.151622    -0.0465952      0.144505    -0.0160036     0.0419154   -0.00616666    0.00802486    0.00263764   0.000430985  1.37533e-005  -0.000197002  -0.000920139
     0.143637    -0.0522219      0.159163     -0.018325     0.0388716   -0.00893589    0.00755066    0.00327907  -0.000597578   0.000806996   -0.00041701  -0.000718406
     0.148747    -0.0528699      0.174134    -0.0203891     0.0345089    -0.0087444    0.00483117    0.00338736  2.52778e-005  5.27246e-005 -8.22573e-006 -3.14774e-005
      0.14346    -0.0534503      0.172634     -0.019361      0.033694     -0.011134    0.00546609    0.00271899  -0.000486957   0.000326061   0.000153137  -0.000935941
     0.138947    -0.0515825      0.174818    -0.0199389      0.035712    -0.0143915    0.00480054    0.00187181  2.53015e-005  4.62464e-005 -8.34333e-006 -2.50257e-005
      0.13982    -0.0562202       0.16689    -0.0241513     0.0353077    -0.0146968    0.00458018    0.00213251  -0.000502057   0.000675493   0.000243958  -0.000173497
      0.13823    -0.0558163      0.169416    -0.0250278     0.0328402    -0.0137814    0.00352864    0.00367412   2.5392e-005  5.34044e-005 -9.26711e-006 -3.35229e-005
     0.137253    -0.0495008      0.184608    -0.0250808     0.0334338     -0.012962    0.00015602    0.00186642   0.000560631  5.93775e-005  -0.000649789  -0.000137034
     0.122719    -0.0590552      0.166923    -0.0261445      0.040326     -0.014694    0.00619428    0.00281585  -0.000237237   0.000856488 -3.29744e-005    0.00015725
     0.137849    -0.0522302      0.187298    -0.0272324     0.0301385   -0.00930201     0.0025294    0.00174087   0.000408354   0.000382549  -0.000104145  -0.000168834
      0.13533    -0.0424574      0.199373    -0.0259523     0.0298799   -0.00658511   -0.00110014   0.000795831   0.000133139  -0.000429811   0.000564369  -0.000253407
     0.106033    -0.0510267      0.172365    -0.0227683     0.0435767    -0.0131745    0.00400028    0.00182566  -0.000345936   0.000351459  -0.000302955  -0.000140635
     0.101564    -0.0429585      0.177908    -0.0181043     0.0456218    -0.0104462    0.00471315   0.000574461   0.000681655  -0.000437661 -8.24196e-005  -0.000339857
    0.0932851    -0.0416014      0.192388    -0.0148527      0.046784   -0.00553164    0.00224964  -0.000102256  -0.000357042   -0.00028459  8.80708e-005   0.000109131
    0.0841934    -0.0387636      0.204062    -0.0104259     0.0489321   -0.00527075    0.00127229  -0.000188342  -0.000841377   -0.00047897  -0.000475029  -0.000302408
    0.0794358    -0.0320195      0.200697   -0.00817064     0.0470749   -0.00430009    0.00315745   -0.00134542   0.000181847   -0.00028237    -0.0005556  1.24026e-005
    0.0793177    -0.0303872      0.201722   -0.00743767     0.0446599   -0.00363631    0.00316199   -0.00092373  -0.000204446  -0.000611007  -0.000459195   0.000145185
    0.0766958    -0.0278849       0.21671   -0.00320921     0.0430241   -0.00276484    0.00335628  -0.000812087   0.000304528  -0.000123097  -0.000376192  -0.000451657
     0.078993    -0.0282476      0.214686   -0.00391711     0.0411669   -0.00211697     0.0024739   0.000147093  2.72151e-005  5.51882e-005 -9.70142e-006 -2.32822e-005
     0.082842    -0.0223053       0.20219   -0.00118521     0.0388084  -0.000993758    0.00373689   0.000409909   0.000555832  -0.000579981  -0.000263913   0.000123657
    0.0822081    -0.0222478      0.200831   -0.00161356     0.0371873   -0.00219835    0.00439491     0.0010673  5.63871e-005  -0.000424055  -0.000737175   0.000473026
    0.0839423    -0.0196421      0.206695     -0.001463     0.0337144   -0.00108444    0.00431784    0.00104271 -7.19511e-005   0.000186158  -0.000671361   -0.00057013
    0.0848918    -0.0217288      0.206085   -0.00195755     0.0318743  -0.000640948    0.00210507   0.000858989   0.000564181  6.11303e-005  -0.000654842  -0.000130006
    0.0735307    -0.0365293      0.195245   -0.00566944     0.0331735   -0.00137873    0.00271298   0.000140042  -0.000579186  -0.000302768  -0.000757903  2.35404e-005
    0.0646695    -0.0424848      0.181422   -0.00517556     0.0381281  8.24705e-005     0.0056008  -0.000810276 -9.03429e-005  -0.000115299  -0.000196849   0.000441405
    0.0587501    -0.0420272       0.17959   -0.00419212     0.0421955    0.00139074    0.00443712   -0.00125422   0.000410284  -0.000270822   0.000275924  9.15598e-005
    0.0609368    -0.0355819      0.189948   0.000137878     0.0412252    0.00415662    0.00244384   -0.00245817  -0.000728407  9.62093e-006  -0.000213001  -2.9389e-006
    0.0687724    -0.0297996       0.19417    0.00239603     0.0398281    0.00624217   0.000921619   -0.00235969  3.07081e-005  3.83875e-005 -1.52699e-005 -2.50254e-005
    0.0718608    -0.0270601      0.201919    0.00467171     0.0346587     0.0058015    0.00118183   -0.00180133   0.000305848  -0.000130575  -0.000382219   -0.00045798
     0.084105    -0.0241175       0.21531      0.002992     0.0295726    0.00972637   0.000324753   -0.00183565 -8.35915e-005  -0.000456289  -0.000283374  -0.000328301
     0.095503     -0.015187      0.219191    0.00397982     0.0255755     0.0109457    0.00174879  -0.000409879   0.000136832  -0.000430185   0.000557927  -0.000246109
    0.0912433    -0.0115781      0.218078    0.00704317     0.0287517    0.00981311    0.00287169  -0.000941864  1.36447e-005  -0.000585235   0.000378603   0.000223099
    0.0727939    -0.0200434      0.189279    0.00692412     0.0378609     0.0116999    0.00637393   -0.00137239  -0.000477741  -0.000446295 -9.84959e-005   0.000577552
    0.0543399    -0.0295696      0.168594    0.00811527     0.0430241     0.0121673    0.00754447  -0.000388039 -5.96839e-005    0.00016379  -0.000680699   -0.00056784
    0.0257669    -0.0417901      0.147393    0.00815173     0.0506228     0.0090866    0.00913023  -0.000861352   0.000431982   0.000352141  -0.000122305  -0.000150699
    0.0152895    -0.0561576      0.137287    0.00332808       0.05227    0.00721261    0.00866535  -0.000413662   0.000533502   0.000219318   0.000535207   0.000392555
    0.0342608    -0.0564562      0.165094    0.00109839     0.0434189    0.00882221    0.00512068   0.000304345  4.24385e-005  3.61612e-005 -2.49779e-005 -2.93274e-005
    0.0668836    -0.0315534      0.204514        0.0047     0.0310411     0.0103514    0.00350358   0.000616825  -7.8116e-005  -0.000452009  -0.000287529  -0.000329144
    0.0800761    -0.0206564      0.233879    0.00694567     0.0250391     0.0126947 -9.56121e-005   0.000289481  -0.000209311   -0.00059121  -0.000462872   0.000130265
    0.0652787    -0.0228348      0.222199    0.00784761     0.0280496     0.0103928    0.00340563   0.000379478 -9.61671e-005 -9.34092e-005  -0.000195317   0.000434967
    0.0684861     -0.027171      0.205061    0.00946057     0.0267045     0.0115492    0.00172555   0.000302764  -0.000345907   0.000358832  -0.000312045  -0.000146749
    0.0517977    -0.0402158      0.179295     0.0064781     0.0306569     0.0118266    0.00351398   0.000251666   2.5318e-005  -0.000594048   0.000366682   0.000216041
    0.0326119    -0.0556803      0.166757   -0.00156713     0.0327886    0.00442158     0.0070375   0.000366147  -0.000487476    0.00066562   0.000226478  -0.000173505
    0.0408774    -0.0584998      0.166653    -0.0053737     0.0231728    0.00206162    0.00652894 -5.37857e-005  3.77101e-005  3.30101e-005 -2.72492e-005 -3.04157e-005
    0.0469917    -0.0599325      0.173406    -0.0070555     0.0202031    0.00346643    0.00699616    0.00296753  3.68883e-005  4.83696e-005 -2.66223e-005 -3.72611e-005
    0.0443901    -0.0632605      0.167497   -0.00610849     0.0237429    0.00416494    0.00533451    0.00162033  -0.000614202   0.000521397  4.60952e-005   0.000281355
    0.0391293    -0.0571378      0.142593   -0.00264513     0.0263757    0.00255234    0.00909437  -0.000279649   0.000802772  4.66307e-005   0.000166858  -4.5306e-005
    0.0404732    -0.0513784      0.136745   -0.00124627     0.0264256  -0.000337868     0.0105444    0.00117865   0.000541425  -0.000129633   0.000443375  -0.000372961
    0.0515764    -0.0389067      0.147665    0.00230844     0.0220472    0.00477683    0.00981857    0.00130343   0.000260973   4.9339e-005   0.000812237  5.71565e-005
    0.0525137    -0.0358676      0.157843    0.00152831     0.0216456    0.00455745    0.00858953   0.000727273   0.000269446   0.000687807   0.000423764  -0.000191585
    0.0367023    -0.0466431      0.146148  -0.000857002     0.0276932    0.00171462    0.00978819    0.00092225   0.000535776   0.000862965   0.000145106   0.000140165
    0.0197047    -0.0496758      0.127288    0.00322254      0.031514    0.00333286     0.0116442    0.00158663   0.000432499   0.000353053  -0.000129224  -0.000156557
    0.0160877    -0.0496566      0.129527    0.00101032     0.0328648    0.00400024     0.0107655   0.000852386   0.000279556   0.000676594   0.000417706  -0.000188601
    0.0161111    -0.0538419      0.139232    0.00438372     0.0359819    0.00488083     0.0117319    0.00170586   0.000808565  5.23146e-005   0.000165116  -4.1858e-005
    0.0104167    -0.0552854      0.128937    0.00598705     0.0377583    0.00488997     0.0112729    0.00217982  2.09568e-005   0.000502749   0.000692527  -0.000518264
    0.0111618    -0.0498968      0.127409    0.00554091      0.034746    0.00464227     0.0107389   0.000321849   0.000433687   0.000348431  -0.000129905  -0.000154856
    0.0138885    -0.0431259      0.146596    0.00826022      0.032383    0.00713318    0.00990424    0.00128656   0.000915152   0.000559539    0.00043551   0.000255008
    0.0324392    -0.0267376      0.178601     0.0135156     0.0248761     0.0121723    0.00563067     0.0014219   0.000161116    0.00019676   0.000152984  -0.000493821
    0.0230553    -0.0413265      0.184734     0.0110498     0.0269013     0.0110756    0.00481266   5.4991e-005   -0.00019477  -0.000614017  -0.000477289   0.000135632
   0.00889747    -0.0591218      0.171097    0.00663136     0.0351358     0.0097916    0.00634969   0.000470348  -0.000465689  -0.000444452  -0.000113069   0.000568466
 -0.000727289    -0.0753777      0.135368     0.0037917     0.0404222    0.00889396    0.00831378   0.000488954  -0.000590012    0.00113931  -0.000352492  4.10496e-005
  -0.00829992    -0.0858075      0.125614   -0.00131493     0.0391264    0.00850332    0.00686496   0.000165514  -0.000337342   0.000678698  -0.000241071   0.000614396
    0.0210835    -0.0665292      0.164577    0.00242497     0.0279275     0.0114349    0.00301514   0.000359648  -0.000718911  1.25631e-005  -0.000228342 -1.91819e-005
    0.0362102    -0.0551158      0.180192    0.00452643     0.0236846     0.0131388    0.00119911    0.00129341 -8.68901e-005   -0.00010211  -0.000207904   0.000421134
    0.0337149    -0.0550424      0.183615    0.00420864      0.027799     0.0153475    0.00212744   0.000762131 -8.59225e-005  -0.000104135  -0.000206948   0.000423133
    0.0223163    -0.0600339      0.170319    0.00854162     0.0325637     0.0166157    0.00351545    0.00053714  -0.000456569   0.000194672  -0.000503545   0.000312044
    0.0222809    -0.0526357      0.187763     0.0125515     0.0353544     0.0197617    0.00167638    0.00202788   -0.00034455  -0.000275526  6.86333e-005  9.28717e-005
   0.00766431    -0.0648669      0.183342     0.0121011     0.0427416      0.020954  6.13904e-005   0.000360781   0.000296078  -0.000408915  8.37478e-005   0.000537063
   -0.0115069    -0.0796161       0.14224     0.0062192     0.0484215     0.0148349    0.00537854   -0.00205613  -0.000583652   0.000143615 -5.28234e-005  -0.000473257
    0.0153155    -0.0614938      0.152474    0.00582073     0.0384586     0.0156171    0.00470795  -0.000787515  -0.000616641  -0.000129721   0.000432139   0.000533667
     0.019788    -0.0593938      0.169605    0.00865203     0.0387703      0.020572    0.00271644  -0.000575347   -0.00034171  -0.000294667  6.70297e-005  9.68936e-005
   0.00985413    -0.0694195      0.150633    0.00901211     0.0475197     0.0222023    0.00488414   -0.00131652  5.02269e-005  2.43535e-005 -3.25036e-005 -3.31441e-005
   0.00828055    -0.0547251      0.145246     0.0163381     0.0507679     0.0247537    0.00373648   -0.00099772  -0.000102353   0.000350645   0.000514273 -6.34484e-005
   0.00206582    -0.0441476      0.167704     0.0217769     0.0568735     0.0274655    0.00191536   0.000600846  -0.000712084  1.71511e-005  -0.000225228  -1.4215e-005
   0.00307186    -0.0457841      0.171108     0.0207952     0.0579819     0.0296612   0.000379373    0.00119529  -0.000712375  2.24712e-005  -0.000224689  -1.8821e-005
   0.00495557    -0.0484997      0.172059     0.0193421     0.0593811     0.0312436   0.000598386    0.00170796  -0.000587691   0.000176258 -4.48412e-005  -0.000484568
    0.0107572    -0.0524708      0.186109     0.0186558     0.0553622     0.0345597   -0.00266126    0.00228883   -0.00033927  -0.000270117  6.96216e-005  8.48018e-005
  0.000215216    -0.0611689       0.19178     0.0177807     0.0549976     0.0339795   -0.00492389    0.00130154   0.000199677  -0.000264883  -0.000575051 -2.04058e-005
 -0.000803384    -0.0601251      0.191934     0.0171923     0.0591432     0.0300793   -0.00461915    0.00141349   0.000199906  -0.000264509  -0.000573647 -1.68629e-005
   0.00316525    -0.0553406      0.188848     0.0177989     0.0601776     0.0344793   -0.00539177    0.00131316   4.6987e-005  6.00102e-005 -2.67539e-005 -5.07167e-005
   0.00194671    -0.0620746      0.176942     0.0169688     0.0601495     0.0349699   -0.00506361    0.00193313  4.92099e-005  5.82969e-005  -2.9008e-005 -5.30163e-005
   0.00493231    -0.0692399      0.172974      0.013736     0.0543918     0.0341948   -0.00452012    0.00113326  -0.000461209  -0.000429707   -0.00011338   0.000544189
  0.000790897    -0.0636143      0.176583     0.0132846     0.0536849     0.0331209   -0.00441969  -0.000651066  -0.000213967  -0.000133848   0.000246362  -0.000379269
   0.00807034    -0.0555524      0.167959     0.0133044     0.0516379        0.0318   -0.00245712  6.86571e-005  -0.000561319  -0.000306724  -0.000772222  4.08625e-006
   0.00698992     -0.070607      0.168051    0.00973559     0.0498855     0.0311901   -0.00473146   0.000771463  -0.000213932   -0.00013033   0.000245055  -0.000384194
   0.00587899    -0.0720478      0.177087      0.013092     0.0546481     0.0304404   -0.00678792 -5.00386e-005   0.000422643  -0.000254666   0.000263288  6.13772e-005
    0.0125809    -0.0573933      0.172798      0.020166     0.0503938     0.0389853   -0.00648491    0.00196772  -0.000339028  -0.000272603  6.60005e-005   7.5761e-005
   0.00428826    -0.0498145      0.165492     0.0211059     0.0515393     0.0384129    -0.0051211    0.00131785  -0.000451594   0.000205616  -0.000504094   0.000295644
  -0.00867857     -0.042677      0.175183     0.0208071     0.0565116     0.0326451   -0.00310395   0.000822873  -0.000337806  -0.000280036  6.79007e-005  8.93212e-005
  -0.00997394    -0.0422339      0.172425     0.0177361     0.0544685     0.0305755   -0.00214167   0.000291483  -0.000229196   0.000220257    0.00033787   0.000389568
   -0.0117195    -0.0486188      0.164573     0.0183869     0.0561578     0.0305232   -0.00101188  -0.000304234    -0.0008639   0.000339886   0.000319087 -5.20191e-005
   -0.0178536    -0.0531787      0.162775     0.0188445     0.0592458     0.0337069   -0.00183687   -0.00097387 -7.24445e-005   -0.00011424  -0.000211201   0.000421857
   -0.0175603    -0.0479308      0.152781     0.0193486      0.062961     0.0346612   -0.00173313   -0.00140856  -0.000475269   0.000662507   0.000221602   -0.00018582
   -0.0158514    -0.0456196      0.148622     0.0213102     0.0645796     0.0353205    -0.0014053   -0.00241014  -0.000583795     0.0001516 -4.84184e-005   -0.00048104
   -0.0103141    -0.0457973      0.151055     0.0236393      0.061795     0.0349447   -0.00222886   -0.00107919   0.000176382   0.000184612   0.000147831  -0.000504004
   -0.0096054    -0.0393366      0.162753     0.0246019     0.0611405     0.0337289  -0.000847744    0.00145885   0.000159929   0.000552168   0.000240304   0.000257444
    -0.023721    -0.0380805      0.175109     0.0244069     0.0684511     0.0312368   -0.00284955   0.000300754  -0.000987096   0.000197193   0.000142585   0.000414258
   -0.0351947    -0.0453446         0.182     0.0252697      0.071335     0.0289844   -0.00377612  -0.000748561  -0.000294713  -0.000123839   -0.00104768   0.000344996
   -0.0210798    -0.0467466      0.183878     0.0235536     0.0631348     0.0320843   -0.00527165 -4.69943e-005  -0.000199142  -0.000250472  -0.000387736   0.000884031
  -0.00785665     -0.031661      0.176851     0.0263273     0.0627799     0.0337266   -0.00435682   0.000313759  -0.000185472  -0.000605458  -0.000476301   0.000123996
   -0.0121999     -0.027021      0.170443     0.0275579     0.0650348      0.033791    -0.0041959    0.00298681   0.000300251  -0.000396503  8.68502e-005   0.000533275
   -0.0152456    -0.0315846      0.175879      0.025761      0.063075      0.031017   -0.00658132     0.0011775   0.000309221   0.000235823  -0.000303549   0.000284875
   -0.0168316     -0.036428      0.188554     0.0212789     0.0611342     0.0293599   -0.00847279    0.00120719  3.50031e-005  -0.000573836   0.000364067   0.000199637
   -0.0121429    -0.0433926      0.195696      0.016429     0.0545682     0.0264484   -0.00870391    0.00142913  -0.000228811  -0.000749905   0.000640293  -0.000132944
  -0.00906606    -0.0376827      0.188172     0.0171417     0.0547629     0.0260655   -0.00641022  -0.000750413   -0.00034233  -0.000279547  7.08924e-005  9.05974e-005
   -0.0118403    -0.0368013      0.177952     0.0184217     0.0586335     0.0267249    -0.0057567   -0.00152902  -0.000340331  -0.000287111  7.02286e-005  9.37635e-005
  -0.00320043    -0.0296501      0.181071     0.0185361     0.0556688     0.0254845   -0.00528984   0.000546183   0.000157168  -0.000431321   0.000544657   -0.00025789
  -0.00010036    -0.0314236      0.184394     0.0170248     0.0538125      0.026371   -0.00674115    0.00235215  -0.000190528  -0.000591904  -0.000474269   0.000116161
   -0.0012177    -0.0403923      0.182769     0.0140859     0.0562525     0.0279434   -0.00680512   0.000391045    3.328e-005   -0.00058152   0.000364924   0.000200286
 9.14788e-005    -0.0464362      0.169097     0.0121557     0.0535574      0.026483   -0.00651562     0.0004925   -0.00059191   0.000176183 -4.46901e-005  -0.000493454
  -0.00596769    -0.0498425      0.158484    0.00918178     0.0557167     0.0247176   -0.00458202  -0.000890544  -0.000105481   0.000363551   0.000517698 -7.57429e-005
  -0.00382571    -0.0478635      0.149999     0.0114158      0.055024     0.0230396   -0.00138798 -3.14491e-005  -0.000365642   0.000182005   0.000793017  -0.000400971
   0.00542001    -0.0383989      0.146596     0.0180969     0.0558502     0.0267839  -0.000837783  2.81691e-005   0.000172673   0.000186388   0.000150362  -0.000501717
  -0.00925773    -0.0354322      0.147967     0.0172841     0.0651314     0.0286912   -0.00331174  -0.000168148   0.000435963   0.000367975   -0.00012465  -0.000173955
   -0.0169563    -0.0380389       0.14098     0.0163892     0.0660205     0.0268743    -0.0040056   -0.00131986   0.000284356     0.0006863   0.000420313  -0.000203813
  -0.00929318    -0.0345416       0.14974     0.0175229     0.0628236     0.0296377   -0.00246167   -0.00105009   0.000821438   0.000694593  -0.000221808  -0.000306276
  -0.00938084    -0.0395948      0.149726     0.0148382      0.059605     0.0268461   -0.00201741   -0.00169828  -0.000326045   0.000334902  -0.000322249  -0.000151178
  -0.00701615    -0.0392579      0.158951     0.0169921     0.0609071     0.0285623   -0.00454152   -0.00203423  -0.000218503   0.000843918 -5.11733e-005   0.000144678
   0.00494365    -0.0304735      0.174897     0.0176709     0.0552673     0.0304623   -0.00228377   -0.00154827  5.96969e-005   -0.00031426  -0.000115808  -0.000800142
   0.00535014    -0.0205886      0.170981     0.0170219       0.05139      0.027289   -0.00248996  -0.000865384   0.000542116  -0.000113249   0.000448125  -0.000387435
  -0.00679245    -0.0137274      0.180606     0.0225118      0.057164     0.0248344   -0.00365313  -0.000378151  -0.000853021  -0.000765163 -9.36254e-006   0.000697338
  -0.00362644    -0.0232372      0.191419     0.0203079     0.0567993     0.0247615   -0.00585702   0.000392896   0.000194583  -0.000268067  -0.000569381 -9.35666e-006
   0.00176701    -0.0302687      0.191089     0.0148803     0.0522142      0.026618    -0.0059186   1.5961e-005  -0.000192072  -0.000601008   -0.00047311   0.000120568
   0.00413506    -0.0294524       0.19136     0.0133477     0.0456049     0.0244855   -0.00396228   0.000919509 -8.41181e-005 -9.42009e-005  -0.000203794   0.000419132
   0.00197119    -0.0382627       0.19815    0.00974007     0.0424753     0.0215546    -0.0059934   0.000745049  -0.000248641  -0.000401922   0.000732233   0.000632573
   0.00291626    -0.0396054      0.192673     0.0116715     0.0441505     0.0246399   -0.00422026  -0.000136811  -0.000329935  -0.000631155 -1.94955e-005  -0.000673381
    0.0146787    -0.0296503      0.174213     0.0138903     0.0413829     0.0256597  -0.000716294    0.00100122   0.000455689 -9.74706e-005  -0.000848931    0.00031882
   0.00603981    -0.0343304      0.181238     0.0124911     0.0426453     0.0222448   -0.00161459   0.000103825   0.000193975  -0.000277654  -0.000572598 -9.13864e-006
-2.70026e-006    -0.0367412      0.203565     0.0133532     0.0496468      0.024521   -0.00386955  -0.000285776  -0.000497912  5.04952e-005   0.000619561  6.09093e-005
   0.00152866    -0.0372767      0.193792     0.0111843     0.0493141     0.0238339   -0.00396969   0.000456005  -0.000497323  5.04227e-005   0.000619011  5.87261e-005
     0.003101    -0.0385968      0.179175    0.00991747     0.0449917     0.0221113   -0.00164028   0.000311807  -0.000343499  -0.000283018  7.04758e-005  9.25086e-005
   0.00804329    -0.0294388      0.180235     0.0150862     0.0448203     0.0215056   -0.00277415   0.000742799   0.000317777  -0.000122452  -0.000392305   -0.00047333
    0.0109163    -0.0175563      0.185824     0.0173999     0.0455999     0.0188041   -0.00199554   0.000860894  3.89656e-005  5.33035e-005 -2.29651e-005 -3.58916e-005
   0.00654634    -0.0150786      0.184782     0.0174749     0.0472516     0.0167872  -0.000170462 -2.69183e-005  -0.000444593  -0.000152004  -0.000586075  -0.000442611
   -0.0149174    -0.0178641      0.183857     0.0222464     0.0543776     0.0160622  -0.000663232   -0.00203598 -6.58397e-005  -0.000466055  -0.000294638  -0.000322183
  -0.00639241    -0.0101836      0.202915      0.024233     0.0530808     0.0177099   -0.00178682   -0.00174077  -0.000346405  -0.000283042  7.54097e-005   0.000109081
    0.0156541  -0.000805175      0.207475     0.0226346     0.0435079     0.0167924   -0.00210495   0.000297478   0.000197593   0.000369673  -0.000955672  -0.000247265
     0.021285    0.00255185      0.225628     0.0217258     0.0401113     0.0184323   -0.00390638  -0.000452465    0.00018324  -0.000262122  -0.000563131 -1.21148e-006
    0.0185224    0.00209937      0.236881     0.0208059     0.0378376     0.0104309   -0.00456279   -0.00227181  -0.000471627   0.000213642  -0.000488515    0.00032336
    0.0157229   0.000397634      0.228674      0.022212     0.0361245     0.0109661    -0.0039152   -0.00216485  -0.000856084  -0.000120206  -0.000393822   0.000457442
    0.0270016     0.0155415      0.243784     0.0250479     0.0328243     0.0194664   -0.00505566  -0.000421318 -9.85364e-005 -8.06982e-005  -0.000194285   0.000430163
    0.0278028    0.00929221       0.21904     0.0202548     0.0317639     0.0143871   -0.00184546  -0.000863701  1.78592e-005  -0.000579585   0.000372995   0.000219809
   0.00846695    -0.0152583      0.181633     0.0125471     0.0360601     0.0124276   0.000784169   -0.00154157   0.000189785  -0.000287361  -0.000570356  3.30062e-006
     0.024405   -0.00449831      0.207081     0.0140799     0.0300136     0.0144726   -0.00172254   -0.00351268  -0.000192435  2.05025e-005  -0.000859605  -0.000111094
     0.043606    0.00767714      0.215758     0.0144912     0.0217472     0.0144286   -0.00222025   -0.00354353  1.41076e-005  -0.000592897   0.000372987   0.000219529
    0.0292144   -0.00535418      0.190261     0.0132195     0.0239837     0.0125547   -0.00074571   -0.00257491  -7.8301e-005  -0.000467236  -0.000292449  -0.000328068
    0.0227036    -0.0157064      0.199079     0.0141355     0.0246807     0.0140553    -0.0023566   -0.00433432  3.11845e-005   3.4289e-005 -2.37284e-005 -3.01568e-005
    0.0176076   -0.00327615      0.223705     0.0169813     0.0252315     0.0126247   -0.00356991   -0.00245461  -0.000733141  2.72989e-005  -0.000216757  -1.1587e-005
    0.0185019    0.00707545      0.233016     0.0189851     0.0246777    0.00919664   -0.00115061   -0.00215423  -0.000359454  -0.000275872  7.88605e-005   0.000109467
    0.0272322    0.00769511      0.240706     0.0184808     0.0236584     0.0102401   -0.00381499   -0.00331723 -8.53148e-005  -0.000449786  -0.000286323  -0.000325255
    0.0250052    0.00709975      0.232266     0.0170923     0.0248003    0.00979322   -0.00299638    -0.0023051   0.000291504   -0.00075452  6.39138e-006  -0.000211873
  -0.00351877   -0.00271556      0.189636     0.0195713     0.0348022    0.00680111    0.00119567   -0.00385618  -0.000459234  -0.000805422  -0.000197076  -0.000180884
   -0.0164831   -0.00456659      0.177837     0.0217265     0.0378023    0.00600855    0.00273187   -0.00544266   0.000315853  -0.000156319  -0.000393276  -0.000442937
   -0.0184491    -0.0115815      0.180858      0.018537     0.0385557    0.00517456    0.00434614   -0.00449213  -0.000193092  -0.000634881  -0.000475967   0.000154506
   -0.0243788    -0.0160972      0.175902     0.0183085     0.0390132    0.00344821     0.0030094   -0.00374031 -6.77539e-005  -0.000480536  -0.000298006  -0.000312247
   -0.0195377    -0.0131935      0.178331     0.0158523     0.0339434    0.00271704    0.00360093   -0.00316818  -0.000193835    -0.0006293  -0.000476914    0.00015011
   -0.0033969  -0.000908591      0.189267     0.0153874     0.0270459   0.000288382    0.00253767    -0.0022757 -7.99487e-005   0.000520509  -0.000593814     0.0001983
   -0.0024325    0.00049267      0.190497      0.013009     0.0229262   -0.00259078    0.00194595   -0.00263888  -0.000353989  -0.000296135  7.28961e-005   0.000116838
   -0.0156807    -0.0211978      0.168153    0.00980007     0.0265211   -0.00490182    0.00492921   -0.00365634  3.85704e-005  1.94446e-005 -2.91912e-005 -1.32319e-005
   -0.0132909   -0.00955115      0.172306     0.0144836      0.023272   -0.00442837     0.0042205   -0.00434487   0.000269383   0.000674713   0.000420954  -0.000176644
   -0.0105614    0.00329157       0.19598     0.0118691     0.0198357   -0.00557457   0.000728849   -0.00417625 -7.87549e-005  -0.000473995  -0.000293994   -0.00031378
 -0.000494559    0.00137492      0.219021     0.0143672     0.0140527   -0.00748865  -0.000261143   -0.00440827  -0.000621438  -0.000471583   0.000350667  -0.000210907
   -0.0183831   -0.00862137      0.205589     0.0144117     0.0170242   -0.00810569    0.00185721    -0.0048959 -7.77246e-005  -0.000474892  -0.000296491  -0.000310483
    -0.030566    -0.0165624       0.20045     0.0103707     0.0186151    -0.0100093    0.00289232   -0.00525078  -0.000227965  -0.000154121     0.0002482  -0.000340804
   -0.0275959    -0.0149882      0.217884    0.00908662     0.0135716    -0.0118587    0.00174123   -0.00545889 -9.41821e-005  -0.000119952  -0.000205894   0.000451538
   -0.0334963    -0.0139955      0.213041     0.0132304     0.0164451    -0.0108951     0.0017786   -0.00568005  -0.000467643   0.000183073   -0.00050051   0.000339142
   -0.0134925  7.73848e-005      0.218094     0.0166359     0.0088788   -0.00837968    0.00163311   -0.00450854  -0.000705222  -0.000465945  -0.000948004    0.00050199
   -0.0173093   -0.00517014      0.180789      0.012471    0.00982299    -0.0109279    0.00541085   -0.00539481  -0.000229201  -0.000164194   0.000246704  -0.000337191
   -0.0340613    -0.0161922      0.142765     0.0086532     0.0180418    -0.0131984    0.00944068   -0.00616519   0.000688228   0.000504982  -0.000407282   0.000194843
   -0.0274412    -0.0178058      0.151521    0.00639923     0.0165221     -0.012106    0.00997176   -0.00484092   0.000425394   0.000333901  -0.000129623  -0.000138138
   -0.0244216     -0.020898      0.152729    0.00929925      0.017716   -0.00885165    0.00886738   -0.00572892   0.000148769   0.000505441   0.000236695   0.000293583
   -0.0196342    -0.0151502      0.155785    0.00920151     0.0172444    -0.0049132    0.00830975   -0.00721921    0.00029996   0.000174995    -0.0003083   0.000325154
   -0.0176635   -0.00922843      0.162796     0.0107258      0.014439   -0.00244037    0.00815754   -0.00757808   0.000145575    0.00050123   0.000238693   0.000293392
   -0.0202991    0.00258256      0.173682      0.017702     0.0184261   -0.00132569    0.00889101    -0.0075135   0.000160386   0.000151616   0.000150107  -0.000463663
   -0.0177977     0.0138568      0.181674     0.0202731     0.0190723   -0.00115688    0.00889256     -0.007212   0.000409585  -0.000301039   0.000266367   0.000116361
   -0.0158155     0.0122045      0.177014     0.0223956     0.0184924    0.00107901    0.00862739   -0.00794159    0.00068239   0.000510198  -0.000401376   0.000197571
   -0.0189741    0.00367874      0.171878     0.0200257      0.022628    0.00334529    0.00799014   -0.00820814   0.000798256  2.28403e-005   0.000167476 -2.03842e-005
   -0.0184004    0.00599364        0.1552     0.0192457     0.0253632    0.00543412    0.00827871   -0.00815398 -7.46556e-005   0.000476639  -0.000599494   0.000214221
   -0.0184809    0.00379806      0.142968     0.0213419     0.0245441    0.00540563    0.00991047   -0.00705854  -0.000709379   0.000601854   -0.00061888  -0.000229563
   -0.0205068    0.00561984      0.146926     0.0229169     0.0248437    0.00506905     0.0087704    -0.0057953  -0.000334438   0.000304575  -0.000325257  -0.000118064
   -0.0180737     0.0132602      0.153778     0.0245152     0.0232903     0.0049052    0.00928083    -0.0055064 -5.91768e-005   0.000133891  -0.000690712  -0.000549117
   -0.0127165     0.0081024      0.168437     0.0221505     0.0156815    0.00486015    0.00804592   -0.00618801    0.00105879   0.000210038  -0.000110072    0.00030422
  -0.00559505    0.00202472      0.181613     0.0181254     0.0112508     0.0113256    0.00383679   -0.00561404   0.000695934   0.000173131  -0.000493352  -0.000585731
  -0.00898501   -0.00308299       0.16952     0.0183096     0.0152295     0.0113176    0.00534374   -0.00677393   0.000160348   0.000156791   0.000148284  -0.000478544
