    0.0565309     -0.299312      0.182527     0.0329544    -0.0593611     0.0415762    -0.0380008   -0.00225618   0.000698157   0.000353564   0.000120229   0.000539331
    0.0522123     -0.294335      0.179842     0.0349237     -0.058145     0.0443636    -0.0367963  -0.000209231   0.000441597 -1.37787e-006   0.000635016    0.00014378
    0.0591046     -0.286891      0.195993     0.0478278    -0.0650841      0.044384    -0.0354588  -0.000902613   0.000433367   0.000236465   0.000280793  -0.000175725
    0.0852748     -0.295427      0.178668     0.0585023    -0.0719396     0.0431953    -0.0379795   -0.00224477   0.000689749   0.000584074  -0.000227767   0.000220203
    0.0993131     -0.305323      0.178236     0.0733651    -0.0729578     0.0406019    -0.0342804   -0.00265478    0.00070295  8.00088e-005  -8.1828e-005   0.000116348
    0.0887828     -0.283805      0.181988     0.0585485    -0.0770498     0.0564367    -0.0356123   -0.00127628   0.000427816   0.000233086   0.000286055  -0.000174593
    0.0986307     -0.283362      0.170326     0.0587479    -0.0789006     0.0600509    -0.0360225   -0.00162357   0.000426112   0.000232244   0.000286571  -0.000172831
     0.119104      -0.27699      0.182623     0.0835108    -0.0927488     0.0571138    -0.0355027   -0.00226612   0.000203923 -4.48606e-005  -0.000472281  4.19801e-005
     0.120843     -0.271032      0.179002     0.0826362    -0.0942853     0.0579409    -0.0357359   -0.00296949   0.000702926  -0.000165127   0.000286556   0.000444018
     0.124751     -0.280304      0.154824     0.0774627    -0.0796927      0.055874    -0.0325596   -0.00435878   0.000428764 -3.42451e-005  7.51038e-005  -0.000588455
     0.140321     -0.281862      0.144269     0.0757819     -0.084385     0.0651403    -0.0338818   -0.00400556   0.000397428   0.000497875   0.000501867   0.000236306
     0.137906     -0.271597      0.162927     0.0749357    -0.0973405     0.0792113    -0.0353283   -0.00274946   0.000216747  -0.000308928  -0.000689752  -0.000362908
     0.133516     -0.252309       0.18211     0.0842141     -0.100764     0.0721932    -0.0354414   -0.00430216 -8.52596e-005  -0.000127947   0.000258376  6.42506e-005
     0.140327     -0.247405      0.176357     0.0889311    -0.0991146     0.0666667      -0.03473   -0.00439134  -0.000582772  -0.000248406  -0.000140514 -1.85883e-005
     0.145706     -0.250004      0.164107     0.0975828     -0.102342     0.0770704     -0.034663   -0.00449417 -7.01061e-005  -0.000636974   0.000405795 -2.94175e-005
      0.14721     -0.244378      0.148207     0.0976521     -0.100138     0.0784773    -0.0355235   -0.00420953   0.000213163  -0.000555803  -0.000324666  -3.8518e-005
     0.141555     -0.240144      0.142772     0.0958051    -0.0948052     0.0727069    -0.0343974   -0.00416586   0.000184962 -2.26682e-005  9.77183e-005   0.000784832
     0.132528     -0.235195      0.153409     0.0936989    -0.0950028     0.0748187     -0.033547   -0.00279426   0.000436777  -0.000284799   0.000441047  -0.000256407
     0.114952     -0.232905      0.139117     0.0677689    -0.0867216     0.0888144    -0.0354298   -0.00145571  -0.000565497  -0.000251186  -0.000155517 -1.22241e-006
     0.102085     -0.244845      0.118264     0.0679703    -0.0744071     0.0737502    -0.0337295  -0.000595791   0.000223022  -0.000288997  -0.000132069   0.000381067
     0.104347     -0.246566      0.118521     0.0772209    -0.0778935     0.0695556    -0.0334626   -0.00194996 -7.03527e-005   0.000102837  -0.000115561  -0.000240718
      0.10148     -0.250724       0.10858     0.0718118    -0.0754736      0.073865    -0.0350019  -0.000470579  -0.000559533  -0.000255814  -0.000157816 -4.23962e-006
    0.0778635     -0.247683     0.0996388     0.0701719    -0.0619263     0.0630333    -0.0309971  -0.000888067   -0.00055912 -1.50936e-005  -0.000525907  -0.000321803
     0.069665     -0.232507     0.0941815     0.0727179    -0.0630172     0.0600383    -0.0304086  -0.000611786  -0.000268814  -0.000411049  -0.000537649   0.000301934
    0.0581712     -0.223718     0.0904873     0.0861591    -0.0639946      0.046046    -0.0271355   0.000440907 -4.76988e-005  -0.000145531   0.000234816  8.02217e-005
    0.0454155     -0.219454      0.108077     0.0884252    -0.0677212     0.0453648    -0.0267739   0.000104756  -0.000532104  -0.000528946  -0.000375409  -0.000415145
    0.0499404     -0.226204     0.0960792     0.0792783    -0.0635472     0.0467271    -0.0269302  -0.000123932   0.000446285   0.000214702   0.000273489  -0.000153924
    0.0515882     -0.241027     0.0502622     0.0737845    -0.0438929     0.0320506    -0.0247205   -0.00138161  -0.000828078  -0.000342813   0.000553253  8.95166e-006
    0.0528607     -0.255559     0.0347174     0.0756108    -0.0362829     0.0217838    -0.0240503  -0.000600268  -0.000349949      0.000755  8.71797e-005  -0.000450696
    0.0542739     -0.260076     0.0354042     0.0804548    -0.0366419     0.0104785    -0.0227495  -0.000191361  -0.000326471  9.75923e-006   0.000594007  -0.000233596
     0.063484     -0.272134     0.0168978     0.0864035    -0.0332069    0.00352163    -0.0199795  -0.000978885   0.000165661   0.000367024   0.000632381  -0.000473147
    0.0544251     -0.274667   -0.00275114     0.0756285    -0.0189007   -0.00675778    -0.0195355   -0.00139636   0.000450198   0.000453012  -0.000104878  -0.000485021
    0.0585202     -0.270358    -0.0121107     0.0765481    -0.0166044    -0.0178999     -0.019345   -0.00145899  -0.000326134   0.000247255   0.000226786  -0.000553304
    0.0605214     -0.278073    -0.0217106     0.0733984    -0.0125135    -0.0166265    -0.0194845   -0.00231548  -0.000332515   0.000488208  -0.000134616  -0.000870476
    0.0574568     -0.290249    -0.0216634     0.0648821   -0.00933745    -0.0194843    -0.0198469   -0.00197647  -0.000523857  -0.000524335  -0.000402564  -0.000431953
    0.0588157     -0.301334    -0.0160662     0.0631265   -0.00989908    -0.0222092    -0.0227274   -0.00136166 -2.48591e-005  -0.000407425  9.52187e-007  -0.000350535
    0.0574961     -0.323769     -0.013557     0.0497832    -0.0044707    -0.0195839    -0.0246662  -0.000295512   0.000177198   0.000135101   0.000980935  -0.000162275
    0.0773815     -0.338903    -0.0171409     0.0576695   -0.00535059    -0.0222096    -0.0266178   -0.00194608   0.000182001  -0.000130816   0.000773568  -0.000578273
    0.0749729     -0.334257     -0.002395     0.0605167    -0.0104742    -0.0249813    -0.0280104   -0.00202013   0.000443553   0.000457436    -9.71e-005  -0.000497507
    0.0763991     -0.345855     0.0135833     0.0657007    -0.0158202    -0.0235782    -0.0266984    -0.0019513 -3.68371e-005  -0.000401115  1.01448e-005  -0.000366385
    0.0623864     -0.351087   -0.00383554     0.0451841   -0.00414571    -0.0179756    -0.0283649   -0.00177714   0.000465708  -0.000279322   0.000400531  -0.000277135
     0.049061     -0.353875   -0.00990426     0.0281832    0.00475203    -0.0158585    -0.0303977    0.00092684 -3.66259e-005   0.000106063  -0.000150913  -0.000260206
    0.0579357     -0.362271   -0.00561311     0.0370594    0.00472336    -0.0219637    -0.0302389   -0.00102589   0.000451163   0.000226447    0.00025191  -0.000182843
     0.046251     -0.361774    0.00020492     0.0238751    0.00979832    -0.0194749    -0.0299124  -0.000623361    0.00017159   0.000384202   0.000617102  -0.000483747
    0.0550802     -0.364813      0.012787     0.0231435    0.00381895    -0.0119992      -0.03178   -0.00185416   0.000447062   0.000233841   0.000249567  -0.000181974
    0.0595729     -0.364039    0.00833225     0.0264987    0.00167366    -0.0126265    -0.0327632  -0.000950091   0.000733847  7.60552e-005  -0.000118727   0.000121673
    0.0572623     -0.372194     0.0047334     0.0288435    0.00594644    -0.0101691     -0.029899   -0.00133221 -3.22367e-005  -0.000389511 -6.38545e-006     -0.000363
    0.0568309     -0.364332    0.00729522     0.0248264    0.00356331    -0.0136869    -0.0313744   -0.00173162   0.000713264   0.000583875  -0.000267435   0.000215139
    0.0497833     -0.353732     0.0211883     0.0192693     -0.002056    -0.0134048    -0.0330931  -0.000896601 -6.08727e-005   0.000379375  6.64224e-005   0.000150062
    0.0498327     -0.364437     0.0112119     0.0121717    0.00430673    -0.0118802    -0.0328899   -0.00284237 -4.72956e-005   -0.00035763   0.000566432   0.000370504
    0.0511443     -0.364917 -1.13712e-005       0.01327    0.00629431    -0.0159542    -0.0334049    -0.0039436  -7.1934e-005   0.000385361  6.22993e-005    0.00014964
    0.0486881     -0.365505    0.00588956     0.0153028    0.00741679    -0.0177526     -0.032482   -0.00341995    0.00016283   0.000152038   0.000978242  -0.000166388
    0.0430215     -0.367891    0.00250081     0.0109283      0.011461    -0.0179765    -0.0301409    -0.0018873   0.000454316 -1.34635e-006   0.000601353   0.000134605
    0.0434092     -0.369456     0.0088146    0.00740993    0.00824736    -0.0157336    -0.0307864   -0.00157758   0.000470724  -0.000267365   0.000389707  -0.000276843
    0.0531114     -0.366741    0.00752089    0.00572486  -0.000336599     -0.017123    -0.0346038   -0.00176614   0.000239737  -0.000276207  -0.000159798   0.000357343
    0.0645143     -0.379089    0.00921536     0.0175844  -0.000820712    -0.0167872    -0.0348404   -0.00283088  -0.000267487  -0.000393325  -0.000556033    0.00026864
    0.0507892     -0.390572    0.00560507    0.00374921    0.00795231    -0.0100287    -0.0333527  -0.000908278   0.000451409   0.000238741   0.000244935  -0.000185255
    0.0448462     -0.378263    0.00994841   -0.00530394    0.00100784   -0.00761477    -0.0365899   0.000182785   0.000760117  -0.000423916   2.4253e-005   3.0204e-005
    0.0478492      -0.37841     0.0168136    0.00699496  -0.000115094    -0.0131309    -0.0338463 -6.74316e-005   0.000754857  -0.000185964   -0.00033343  -0.000291964
    0.0487554     -0.388078    0.00665969    0.00216301    0.00421186    -0.0135231    -0.0349658   0.000297441   0.000227179   0.000229571  -0.000309113   0.000447286
    0.0600895      -0.39669     0.0145026    0.00162197   -0.00217726   -0.00813773    -0.0385904    0.00318067   0.000238098 -1.41892e-005  5.57244e-005   0.000763828
    0.0611326     -0.398391      0.013489       0.01149   -0.00113312     -0.013959    -0.0374826     0.0028332   0.000251312  -0.000282364  -0.000155468   0.000349511
    0.0635305     -0.396613     0.0062736     0.0129176   -0.00125729    -0.0143154    -0.0355372  -0.000104006  -0.000255283  -0.000633552  -0.000197986    0.00058176
     0.064826     -0.394326    0.00380286    0.00385205   -0.00161107   -0.00430917    -0.0359177    0.00206094   0.000264975  -0.000545155  -0.000373603 -5.91338e-005
    0.0498898     -0.390927   -0.00116569    -0.0104359    0.00601076   -0.00607959    -0.0361559    0.00236705   0.000239526 -9.70665e-006  4.58405e-005   0.000767489
    0.0546693     -0.393616     0.0129025   0.000927611    0.00337179    -0.0149439    -0.0330057    0.00130199   0.000215403   0.000497504 -9.82198e-005   0.000853683
    0.0704253     -0.377569     0.0131926     0.0187006   -0.00663931    -0.0157151    -0.0326938    0.00144598   0.000459863   0.000228455    0.00025503  -0.000186411
    0.0750108     -0.369239    0.00483687     0.0211394   -0.00504923    -0.0159797    -0.0322494   0.000587215   0.000460261 -1.05658e-005   0.000613121   0.000132901
    0.0798325     -0.367939   -0.00084902     0.0242821   -0.00343039    -0.0202051    -0.0299992  2.85579e-005 -2.35766e-005  -0.000394727 -9.43621e-007  -0.000363475
    0.0778029     -0.363874   -0.00681382     0.0160757   -0.00283765    -0.0166117     -0.031664   0.000933326   0.000446023   0.000493457    0.00046423   0.000230546
    0.0824147     -0.363255   -0.00965152     0.0165297   -0.00449826    -0.0119215    -0.0313113   0.000230478 -3.74127e-005  -0.000128139   0.000210296  5.31627e-005
    0.0826756     -0.350599   -0.00721687     0.0163435   -0.00635611    -0.0116792    -0.0305758  -0.000448641 -3.57276e-005   -0.00036625   0.000568994   0.000372508
    0.0786681     -0.353059 -6.43242e-005     0.0155382   -0.00624423    -0.0129769    -0.0295923   -0.00169417 -6.19931e-005   0.000381257  6.31754e-005   0.000147891
    0.0845619     -0.346875   -0.00149193     0.0247349   -0.00871554    -0.0158963    -0.0284358   -0.00222731 -2.78507e-005  -0.000630826   0.000357618 -4.21145e-005
    0.0852647     -0.349648   -0.00784926     0.0204181   -0.00739117    -0.0171589    -0.0282937   0.000357052   0.000463755 -1.16436e-005   0.000609318   0.000136004
    0.0843982     -0.352503   -0.00652005     0.0180853   -0.00803704    -0.0136178    -0.0283384    0.00106811  -2.9326e-005  -0.000367759   0.000567697   0.000369217
    0.0850272     -0.346993     -0.010522     0.0221465   -0.00332511    -0.0178439    -0.0276528   0.000611549   0.000462465   0.000225939   0.000248438  -0.000179845
    0.0849396     -0.353413   -0.00815036     0.0209167  7.67709e-005    -0.0209492    -0.0283415      0.001048   0.000252149  -0.000284131  -0.000163605   0.000354462
    0.0840057     -0.345488    0.00731713     0.0236826   -0.00999928    -0.0132186    -0.0301303   0.000487428 -1.77313e-005  -0.000635545   0.000359424 -4.02744e-005
    0.0862628     -0.355903    0.00724125     0.0259198    -0.0105227    -0.0142123    -0.0295671   0.000734352   0.000193436  -0.000124742   0.000771503  -0.000580558
    0.0859578     -0.369284    0.00235435     0.0192034   -0.00720553   -0.00798404     -0.030846    0.00249806    0.00023434   0.000221505  -0.000306449   0.000446706
    0.0794071     -0.376618   -0.00298233     0.0121379    -0.0024492   -0.00958839    -0.0318041    0.00208805   -3.431e-005   0.000110692  -0.000150219   -0.00026671
    0.0827005     -0.381763    0.00813272     0.0235749   -0.00442987    -0.0179968     -0.032091    0.00266826 -3.15659e-005   -0.00013087   0.000214186  4.47795e-005
    0.0840831     -0.374493    0.00926045       0.02653   -0.00636813    -0.0171644     -0.031102    0.00112467    0.00097155  7.86882e-005   0.000441849  -0.000516195
    0.0761068     -0.363778     0.0101032     0.0199101   -0.00447844    -0.0109527    -0.0304996   0.000436784   -0.00030369  -0.000477392   0.000727338  -0.000347176
    0.0774324     -0.361989     0.0147854     0.0195611   -0.00804469   -0.00965304    -0.0320738   0.000774989  -0.000302927   -0.00047896    0.00073053  -0.000345708
    0.0853392     -0.375683    -0.0140936     0.0178651   0.000772871    -0.0142366    -0.0303945  -0.000168002   0.000243469    -0.0002794  -0.000163477   0.000351077
    0.0931781     -0.375398    -0.0127414     0.0235668   -0.00304002    -0.0146683    -0.0301603   9.4269e-005   0.000227643 -1.45552e-005   5.2018e-005   0.000760773
      0.10143     -0.379791    -0.0108081     0.0326658   -0.00458819    -0.0213037    -0.0299878   -0.00163555 -4.91085e-005  -0.000126757   0.000214528  4.28369e-005
     0.101945     -0.379684    -0.0356481     0.0228096    0.00186363     -0.012218    -0.0276938   -0.00221519   -0.00026351  -0.000394517  -0.000566107   0.000265513
    0.0926961     -0.374769    -0.0229591    0.00975453  -0.000641983   -0.00677794    -0.0305613   -0.00226288   0.000534848  -0.000694679  -0.000749722   0.000244797
    0.0937828     -0.381754    -0.0317442    0.00554302    0.00516229    -0.0137406    -0.0301347   -0.00186818   0.000239104  -0.000274178  -0.000168473   0.000351771
    0.0937455     -0.373345    -0.0387425     0.0104708    0.00316098   -0.00806705    -0.0295386   -0.00209141   0.000733218  8.05917e-005  -0.000127954   0.000121442
    0.0913064     -0.369053    -0.0234037     0.0174231   -0.00183041    -0.0117371    -0.0284166   -0.00238425   0.000746751  -0.000186178  -0.000337359  -0.000292735
     0.092411     -0.366738    -0.0328086     0.0139309    0.00348726    -0.0128387    -0.0291981   -0.00126733   0.000257562  -0.000545396  -0.000380135 -5.59164e-005
     0.102374     -0.376827    -0.0344769     0.0133724    0.00138771   -0.00948943    -0.0310238   -0.00204477   0.000236341  -0.000277047  -0.000164924   0.000353745
     0.099034     -0.375205    -0.0343953    0.00844404    0.00171574   -0.00397744    -0.0316492   -0.00072208   0.000223604   0.000226958  -0.000312719   0.000451076
     0.103995     -0.366746     -0.035271     0.0107603   0.000585743   -0.00402061    -0.0326557    -0.0017779    0.00023795  -0.000278905  -0.000164306   0.000359543
     0.115266     -0.375974    -0.0215761     0.0236091   -0.00452553   -0.00946309    -0.0327656   -0.00296444   0.000228937  -0.000278219  -0.000157565    0.00035206
     0.106001     -0.367683    -0.0186249     0.0245232    -0.0016929    -0.0134205    -0.0320381   -0.00194094 -3.30288e-005  -0.000393801 -3.71454e-007  -0.000359788
     0.105764     -0.373055    -0.0162455      0.020787   -0.00131436   -0.00931027    -0.0323088    -0.0017775   0.000221993  -0.000250306   0.000411247    0.00108076
     0.117763     -0.381808    -0.0042143     0.0279877   -0.00806444   -0.00430308    -0.0319855   -0.00218731   0.000440256   0.000233404   0.000255038  -0.000188625
     0.117871     -0.382889   -0.00997337     0.0300278   -0.00674022     -0.007578      -0.03278   -0.00161194   0.000215484 -1.29209e-005  5.72678e-005   0.000759241
     0.116382     -0.381468    -0.0178708     0.0315343   -0.00140871    -0.0154741    -0.0329035   -0.00156262 -1.66143e-005  -0.000900058   0.000148705  -0.000459395
     0.126217     -0.379161     -0.011662     0.0373043   -0.00539767    -0.0137819    -0.0325226   -0.00169478   0.000230757  -0.000282486  -0.000153395   0.000347447
     0.125244     -0.382404    -0.0211201     0.0303972    0.00156235    -0.0134575    -0.0325953   -0.00392565   0.000244271   -0.00102032   0.000346998   0.000570368
     0.124766     -0.378141    -0.0286068     0.0290723    0.00283718    -0.0153038    -0.0322661   -0.00373368 -5.51692e-005  -0.000362958   0.000571063    0.00036451
     0.125875     -0.375227     -0.016082     0.0309002   -0.00476989   -0.00926056    -0.0342332   -0.00303988   0.000228932  -0.000518586   0.000204905   0.000668464
       0.1333     -0.374298    -0.0157429     0.0364391   -0.00635064    -0.0104875    -0.0335391    -0.0033654 -3.85671e-005  -0.000870496   0.000723543   0.000269727
     0.135402     -0.358107     -0.019149     0.0369226   -0.00735585     -0.012248    -0.0289493   -0.00247047  -0.000317668   -0.00047969   0.000731123  -0.000348532
      0.13152     -0.352026    -0.0268092     0.0350201   -0.00181972    -0.0167835    -0.0280999   -0.00410349   0.000441902 -8.20653e-006   0.000610399   0.000133626
     0.134071      -0.35186    -0.0325137     0.0335883   0.000143494    -0.0187158    -0.0287184   -0.00388913   0.000456404 -3.79742e-005  3.88177e-005  -0.000592798
     0.134896     -0.342277    -0.0202988     0.0305183   -0.00506844    -0.0116154     -0.030265   -0.00314763  -0.000317333  -0.000480033   0.000730275  -0.000341303
     0.150511     -0.349096    -0.0175993      0.042218    -0.0119808    -0.0146476    -0.0291573   -0.00322483   0.000938031   0.000344155   0.000658233  -0.000100905
     0.140506     -0.345224    -0.0219467     0.0413147   -0.00525419    -0.0188329     -0.025964    -0.0037145  -3.9176e-005   -0.00039453 -9.33621e-007  -0.000362588
     0.121509      -0.34092    -0.0267349      0.021181  3.73874e-007     -0.011732    -0.0288939   -0.00142479    0.00047203   -0.00027776   0.000393529  -0.000270325
     0.124456     -0.340147    -0.0207642     0.0259067   -0.00515278   -0.00999325    -0.0290274   -0.00273214 -4.87679e-005  -0.000127576    0.00021005  5.65356e-005
     0.117803     -0.337624     -0.012342     0.0299498   -0.00287394    -0.0111609    -0.0276073   -0.00224572 -3.15058e-005  -0.000394302 -4.24301e-006  -0.000356178
     0.113526     -0.335451    -0.0207255     0.0259452   -0.00127859    -0.0102133    -0.0285294  -0.000333916   0.000457548   0.000224641   0.000248157  -0.000174731
     0.105433     -0.331918    -0.0207108     0.0230418   -0.00133562   -0.00998672    -0.0274209    0.00136657  -4.7675e-005   0.000371356  5.91598e-005    0.00015437
     0.101002     -0.332915    -0.0254927     0.0206339    0.00231919    -0.0054694    -0.0292435    0.00284748  -0.000555797   0.000517213  -0.000128679   0.000486114
    0.0984838     -0.331301    -0.0269525     0.0200491    0.00398507   -0.00605834    -0.0283269     0.0035354 -7.25501e-006  -0.000165687  -0.000369313  -0.000664243
     0.091755     -0.329091    -0.0224064     0.0185287   0.000286071   -0.00501909    -0.0281302    0.00329462 -7.86124e-006   -0.00016475  -0.000368507  -0.000664007
    0.0964091     -0.321132    -0.0220699     0.0253548   -0.00196199   -0.00858544    -0.0281046    0.00346995  -0.000268261   0.000360059    -0.0004978   0.000790025
     0.087608     -0.324143     -0.017075     0.0170407    0.00388184    -0.0119495    -0.0275336    0.00310556  -0.000290112  -1.0623e-005  1.58285e-006  -0.000966509
    0.0786593     -0.325497    -0.0267615    0.00216321    0.00866146   -0.00787517    -0.0280625    0.00417469  -0.000510127  -0.000252782  -0.000203362 -1.53257e-005
    0.0824787     -0.325647    -0.0344872     0.0040768    0.00689106   -0.00812832     -0.029411    0.00399887 -3.41148e-005   0.000606381  -0.000305987  -0.000152459
    0.0861208     -0.330917    -0.0228169      0.013071  -0.000302876   -0.00938883    -0.0284434    0.00280848   0.000262787  -0.000288704  -0.000167828   0.000365983
    0.0826018      -0.32313    -0.0292493     0.0122013   -0.00136336   -0.00786367    -0.0257605    0.00284549  -0.000323355   0.000762563  6.61141e-005  -0.000459851
    0.0727776     -0.317056    -0.0465429    0.00588067    0.00588321    -0.0043716    -0.0235673     0.0019103 -6.25562e-006  -0.000159864  -0.000379992  -0.000659383
    0.0715968     -0.322461    -0.0367172     0.0090368     0.0038966     -0.010478    -0.0238453     0.0011523 -6.25604e-005    0.00111822  -0.000456033 -6.28709e-005
    0.0804443     -0.325574    -0.0363945     0.0196335  -0.000829511    -0.0116456     -0.023378    0.00240263 -2.33069e-005   0.000103659  -0.000159901  -0.000255315
    0.0806488      -0.31886    -0.0354843     0.0177285  -0.000479977   -0.00878663    -0.0242057    0.00246217   0.000491189 -4.56809e-005  2.67224e-005  -0.000580009
    0.0849344      -0.32316    -0.0386276     0.0112672   0.000917259    -0.0107836    -0.0243001    0.00217831   0.000170893     0.0011201   0.000104346  -0.000693986
    0.0949406     -0.335096    -0.0470173    0.00645366     0.0047012    -0.0110851    -0.0245681    0.00260892  -1.8332e-005   -0.00013227   0.000195085    6.153e-005
    0.0940598     -0.341589    -0.0504896     0.0028785     0.0111674    -0.0151486    -0.0253532    0.00231294   0.000243637   0.000458627  -0.000682704   0.000141503
    0.0831933       -0.3281    -0.0569654   -0.00125215     0.0145415   -0.00885638    -0.0247715    0.00209742   -0.00031937   0.000528204   0.000413743  -0.000140428
    0.0869896     -0.332471    -0.0576081   -0.00919038     0.0105917     0.0018065    -0.0272296    0.00272237  -0.000517271 -9.78913e-006  -0.000568816  -0.000329374
    0.0879249     -0.355383    -0.0656504    -0.0162907     0.0163862    0.00099663     -0.029687     0.0049728    0.00048676   0.000224746   0.000228991  -0.000165964
    0.0811038     -0.351585    -0.0589051    -0.0173252     0.0147802    0.00495987    -0.0289224    0.00388836 -1.59064e-005    0.00011014  -0.000171659   -0.00024872
    0.0863589     -0.358549    -0.0522729   -0.00835541     0.0115893   -0.00228968    -0.0278177    0.00491259    0.00050025 -4.12215e-005  1.86786e-005  -0.000583053
    0.0818135     -0.359331    -0.0486184   -0.00724852     0.0126532   -0.00289469     -0.027793    0.00585876  -0.000788949 -9.65114e-005   0.000162211  -0.000324381
    0.0753474     -0.359742    -0.0454551    -0.0108114     0.0111216  -0.000777326    -0.0283059    0.00653786  1.13796e-005  -0.000399121 -2.22019e-005  -0.000349138
    0.0873982     -0.372045    -0.0558936   -0.00530423     0.0108477   -0.00500522    -0.0283274    0.00449645  -0.000528028  1.84554e-005  6.08806e-006    0.00038555
     0.105402     -0.374767    -0.0596429    0.00185324     0.0083985   -0.00388613    -0.0288526    0.00461423  -0.000264729   0.000367406  -0.000507965   0.000781278
    0.0924896     -0.374299    -0.0701928    -0.0149124      0.017813   -0.00358289    -0.0281464    0.00495516 -1.01612e-005  -0.000129225   0.000187066  5.96212e-005
    0.0847401     -0.363415    -0.0685026    -0.0260673     0.0176047    0.00448621    -0.0279714    0.00509932  -0.000489682  -0.000511746  -0.000429388  -0.000429099
    0.0841643     -0.365057    -0.0614405    -0.0173064     0.0174759    0.00129889    -0.0252783    0.00395557  -0.000227594  -0.000396054  -0.000588312   0.000279194
    0.0924502     -0.364733    -0.0686308   -0.00911077     0.0187157   -0.00620484    -0.0229182    0.00351644 -1.71643e-005   0.000112849   -0.00017656  -0.000260187
     0.107088     -0.355395    -0.0664546    0.00290777    0.00292255   -0.00335645    -0.0269794    0.00494666  1.00882e-006  -0.000164431  -0.000375465  -0.000666956
     0.100111     -0.351817    -0.0595222    0.00281743    0.00345384   -0.00802783    -0.0275683     0.0031743 -3.92218e-005    0.00060978  -0.000307209   -0.00016076
      0.11216      -0.34933    -0.0681106   -0.00320182    0.00825383   -0.00662922    -0.0260913    0.00114542  -0.000239084  -0.000399983  -0.000578217   0.000281069
      0.12537     -0.342497    -0.0699947     0.0108596    0.00751532    -0.0087779    -0.0249159    0.00116701      0.000252   0.000190812   -0.00089385  -0.000269835
     0.120229     -0.332096    -0.0519641     0.0194366    0.00294908    -0.0113933    -0.0236428   0.000872545   0.000467473   0.000223715   0.000238635  -0.000174081
     0.120559     -0.321341    -0.0482958     0.0195883   -0.00291987    -0.0101157    -0.0240803   0.000658473 -3.07283e-005   0.000104217  -0.000157929  -0.000254048
     0.115913     -0.323603    -0.0505011     0.0154119   0.000198965   -0.00772884    -0.0231185  -0.000511376 -1.65531e-005  -0.000396371  -1.5781e-005  -0.000349148
      0.12243     -0.342053    -0.0517557     0.0154125   -0.00114709   -0.00605362    -0.0236686   0.000640275 -3.04095e-005  -0.000129575   0.000197836   5.6783e-005
     0.138268      -0.35254    -0.0535578     0.0237394   -0.00496056   -0.00755577    -0.0240845  5.79699e-005 -3.88747e-005    0.00010818  -0.000156469   -0.00026455
     0.126129     -0.354516    -0.0438271     0.0118522   -0.00420434   -0.00414197    -0.0253538   0.000585982   0.000266304  -0.000547798  -0.000383586 -5.51002e-005
     0.118052      -0.37258     -0.043373    0.00638772   -0.00218266   -0.00276161     -0.024385   0.000346389   0.000762387  -0.000424391  1.22975e-005  2.23055e-005
     0.124409     -0.393817    -0.0402368    0.00412417    -0.0020589   -0.00684118    -0.0247078    0.00127763   0.000234821 -7.64746e-006  3.90992e-005   0.000754196
     0.129796      -0.40428    -0.0404429     0.0047012   -0.00304639   -0.00565116    -0.0275428    0.00189332   0.000518434   -0.00016325   -0.00032827    0.00105602
     0.134467     -0.358962    -0.0463238     0.0161551   -0.00557927   -0.00380638    -0.0232743   0.000657443 -3.65276e-005   0.000111688   -0.00015952  -0.000266937
     0.132059     -0.315413    -0.0624325     0.0118971  -0.000179697   -0.00980954    -0.0229776    0.00293614  -0.000304606   0.000492593  -0.000150032  -0.000869845
     0.139221     -0.338224    -0.0593033     0.0255088    0.00199252    -0.0198898    -0.0214922    0.00170944    0.00073609   0.000572393  -0.000277634   0.000217322
      0.13665     -0.348575    -0.0307429      0.028585   -0.00861826   -0.00782543    -0.0224406    0.00246111   0.000486056  -0.000281155   0.000389993  -0.000279568
     0.131548     -0.359834    -0.0564215    0.00447446 -1.02519e-006  -0.000216503    -0.0247528    0.00223668   0.000237279   0.000461754  -0.000680928     0.0001349
     0.131326     -0.366205    -0.0549205    0.00872619     0.0012252   -0.00685415    -0.0232651   0.000699614   0.000466353 -6.74971e-006   0.000594649   0.000132263
     0.126595     -0.359157    -0.0362054     0.0170994   -0.00118766    -0.0133143    -0.0231073    0.00070262   0.000465722  -8.4731e-006   0.000598924   0.000130555
     0.129304     -0.351677     -0.042716     0.0122848  -0.000382305   -0.00963175    -0.0231784   0.000139933    0.00019701  -0.000120639   0.000755267  -0.000579109
     0.126059     -0.347291    -0.0478758     0.0147799  -0.000103041   -0.00835955    -0.0212063 -4.94034e-005 -3.31583e-005  -0.000125409   0.000194944  5.17171e-005
     0.133517     -0.363729    -0.0597207     0.0155757    0.00342822    -0.0135654     -0.020956 -3.98368e-005   0.000246923  -4.0421e-005  -0.000535677  3.27445e-005
         0.14     -0.360049    -0.0603838     0.0184924   2.6201e-005     -0.013851    -0.0230372  -0.000305528   0.000758875  -0.000191851  -0.000344153  -0.000292968
     0.134986     -0.347606    -0.0454474     0.0280597   -0.00418215    -0.0151682    -0.0213346   0.000232209 -2.12074e-005  -0.000158552  -0.000370254  -0.000678993
      0.12899     -0.343187    -0.0553074     0.0247926   0.000445199    -0.0187581     -0.019076  -0.000381902 -3.32769e-005  -0.000128431   0.000196317  4.94608e-005
     0.122823     -0.342147    -0.0702701       0.01582    0.00599057    -0.0186226    -0.0196716  -0.000661921 -3.42251e-005   0.000110599  -0.000166439  -0.000262848
      0.12134     -0.338604    -0.0510273     0.0147104   -0.00369249   -0.00503941    -0.0225057    0.00080218 -2.90571e-005   -0.00012932   0.000197134  5.67286e-005
     0.120858     -0.343836    -0.0493076     0.0141265  -0.000834973    -0.0115394    -0.0211986    0.00209712 -7.34122e-006  -0.000397012 -1.72183e-005  -0.000358013
     0.128084     -0.350714    -0.0518866     0.0243751   -0.00161851    -0.0182003    -0.0200067    0.00243447 -2.59125e-005   0.000105594  -0.000160806  -0.000268543
     0.131148     -0.350281    -0.0409708     0.0294067   -0.00894199    -0.0139472    -0.0210942   0.000817732  -0.000530741  -0.000248726  -0.000196458 -3.60167e-005
     0.120709     -0.345342       -0.0398      0.023385   -0.00280851     -0.016104    -0.0199414   0.000555925   0.000165328   0.000648641   0.000822588 -7.62798e-005
     0.127856     -0.344613    -0.0404957     0.0300923   -0.00638415    -0.0143573    -0.0187965    0.00232904   0.000756708  -0.000167948   0.000227499   0.000432559
     0.125147     -0.352635    -0.0411833     0.0244637    -0.0066512    -0.0120839    -0.0202611    0.00227465 -2.58404e-005  -0.000130687   0.000199372  4.68524e-005
     0.110541     -0.348233    -0.0434537     0.0150829     -0.002951   -0.00846734    -0.0189575    0.00344392 -2.10553e-005     0.0001087  -0.000165699  -0.000266806
      0.11706     -0.349763    -0.0416933     0.0220986    -0.0037575   -0.00954682    -0.0188768    0.00330076   0.000459184   0.000492423   0.000448592   0.000225504
     0.118857     -0.359374    -0.0413182     0.0160812   -0.00300506    -0.0082532    -0.0202932     0.0024891   0.000486335 -3.77218e-005  2.31273e-005  -0.000598075
     0.118144     -0.351967    -0.0434544     0.0113585   -0.00215993   -0.00390482    -0.0198066    0.00301826   0.000776363  -0.000429797  7.79722e-006  2.42577e-005
     0.116948      -0.34065    -0.0454083     0.0198779    -0.0026996   -0.00736231    -0.0186949    0.00238232 -5.67615e-005   0.000642117   0.000260224   0.000557249
     0.109384     -0.327345    -0.0437371     0.0139097   -0.00406057   -0.00225903    -0.0197774    0.00278291 -2.20097e-005   0.000107433  -0.000165762  -0.000258455
     0.113468     -0.332058     -0.048601    0.00567233   -0.00271955   0.000587273    -0.0187561    0.00161077 -4.13933e-005   0.000379516  4.28634e-005   0.000151573
     0.112267     -0.332309    -0.0491324    0.00611664   -0.00307306  -0.000252861    -0.0185263    0.00124784 -4.27327e-005   0.000380041  4.29998e-005   0.000151157
     0.109204     -0.321491    -0.0485935    0.00764537   -0.00257246  -0.000663934    -0.0189361    0.00242705 -3.67345e-005   0.000375865   4.3559e-005   0.000155166
     0.114527     -0.318637    -0.0598077     0.0166784    0.00231512    -0.0123742    -0.0160218   -0.00130415  -0.000566692   0.000766641  -0.000503135   0.000163375
     0.129934     -0.328875     -0.062258     0.0168289   -0.00116546   -0.00425328    -0.0179709  -0.000202424 -4.92863e-005   0.000378165  4.47224e-005   0.000150934
     0.134771     -0.331106    -0.0490066     0.0204116   -0.00743019   -0.00327217    -0.0190893   0.000997039 -2.84746e-005  -0.000129276    0.00019566  5.43391e-005
     0.116116     -0.311535    -0.0563975     0.0150031   -0.00254026   -0.00589869    -0.0174556   0.000620005  -0.000313584   0.000500723  -0.000155877  -0.000874277
     0.116794      -0.31282    -0.0659659    0.00759044  -0.000694851    0.00110137     -0.016951   0.000297385  -4.6051e-005   0.000616645  -0.000318918  -0.000158733
      0.12073      -0.31619    -0.0547641     0.0122626   -0.00536159  -0.000677825    -0.0179061   0.000760277   0.000183811   0.000620145   0.000243779  -0.000791972
     0.119296     -0.319931    -0.0539231    0.00683654   -0.00471484    0.00101845    -0.0192231    0.00309067   0.000477014   0.000463448  -0.000127726  -0.000488321
     0.126569     -0.317551    -0.0502924     0.0216445   -0.00992978  -0.000183687    -0.0170211    0.00220789  -4.0054e-005   0.000373121   4.7493e-005    0.00015218
     0.115724     -0.304548    -0.0418361      0.026455    -0.0113285   -0.00128481    -0.0168874     0.0017946 -2.54352e-005    0.00010504  -0.000163523   -0.00025617
     0.111108     -0.295548     -0.026691     0.0322698    -0.0143033   -0.00675316    -0.0163047    0.00343958  -0.000498195  -0.000522419  -0.000413865  -0.000434383
     0.111482      -0.29452    -0.0354809     0.0284726    -0.0142665   -0.00254938    -0.0158724    0.00297588  -0.000303104   0.000255879   0.000208319  -0.000557388
     0.124402     -0.303627    -0.0573092     0.0280728    -0.0120036  -0.000655346    -0.0166212    0.00196406 -4.53913e-005   0.000845988  -0.000668404  -0.000476619
     0.135985     -0.307539    -0.0537624     0.0398956    -0.0167184   -0.00540019    -0.0169295    0.00203515  -0.000307591  1.47849e-005   0.000572538  -0.000244636
      0.12043     -0.308697    -0.0588809     0.0255792    -0.0112392    0.00146333      -0.01818    0.00296376  -0.000802657   0.000136813   -0.00019143  -0.000639265
      0.12563     -0.296389    -0.0611217     0.0304348    -0.0154655   -0.00100112    -0.0180367    0.00188685 -2.41703e-005  9.92983e-005  -0.000159835  -0.000251129
     0.119322     -0.280568    -0.0604861      0.034074    -0.0133828   -0.00563428    -0.0156157   0.000767353   -0.00030949   0.000253439   0.000209205  -0.000551634
     0.107747     -0.269656    -0.0487227     0.0366789    -0.0124595   -0.00468525    -0.0109893   0.000774631 -8.84046e-006  -0.000163991  -0.000380291   -0.00066228
     0.117319      -0.26458    -0.0374541     0.0452142    -0.0233937   -0.00393348    -0.0133626  1.29015e-005  -0.000510135  -0.000523087  -0.000411311  -0.000428268
     0.115061     -0.264294    -0.0552617      0.036379    -0.0165069   -0.00563393    -0.0121772    0.00123525 -6.05999e-006  -0.000167722  -0.000377031   -0.00065929
     0.107691     -0.264356    -0.0682532     0.0248517   -0.00688546   -0.00349452    -0.0105088   0.000775146 -3.84472e-005   0.000608524  -0.000319774  -0.000151251
     0.117469      -0.27066    -0.0743312     0.0364216   -0.00891233   -0.00593379    -0.0110743   0.000358705 -2.46528e-005   0.000100738  -0.000169136  -0.000248611
     0.125031      -0.27326    -0.0755877      0.038188     -0.013026   -0.00411835    -0.0133822   -0.00122845 -5.12421e-005   0.000606522  -0.000310428  -0.000153208
      0.12833     -0.270745    -0.0780181     0.0368261    -0.0174398   -0.00198204    -0.0138578   -0.00191778 -3.55354e-005   0.000101863  -0.000162572  -0.000246497
     0.115398     -0.277386     -0.090956     0.0299805   -0.00348405    -0.0101049    -0.0121011   -0.00102289  -0.000242775   -0.00016907  -0.000941601 -2.79993e-005
     0.112398     -0.271776    -0.0892486     0.0223283   -0.00952991   0.000207501    -0.0158121   0.000372117   0.000260693 -5.41942e-005  -0.000538925  6.22408e-005
     0.116134     -0.261115    -0.0789515     0.0398744    -0.0179991    -0.0017309    -0.0161147  -0.000418633    0.00025196   0.000179944  -0.000889286  -0.000254507
     0.106181      -0.27672    -0.0670284     0.0394911    -0.0123893    -0.0102793    -0.0143981  -0.000538084 -1.43318e-005  -0.000166929  -0.000374731  -0.000660024
     0.116804     -0.285404     -0.064525     0.0397823    -0.0204338    -0.0012815    -0.0151127   0.000412163 -2.94948e-005  9.95585e-005  -0.000159362  -0.000251053
     0.104378     -0.287163    -0.0627242     0.0334473    -0.0172542    0.00225984    -0.0182416  -0.000215005 -5.04784e-005   0.000606112  -0.000305187  -0.000152322
    0.0857641     -0.268411    -0.0306208     0.0430245    -0.0222443   0.000212127    -0.0150555 -7.35217e-005 -3.14223e-005   0.000101506  -0.000158059  -0.000248551
    0.0855791     -0.240398   -0.00382182     0.0611795    -0.0313084   -0.00702589    -0.0119225 -2.60037e-005  -0.000825503   0.000161147   0.000391094  9.30488e-005
    0.0908869     -0.247814    -0.0048004     0.0512077    -0.0239651   -0.00785645    -0.0148359  2.49304e-006  -0.000541296  8.93064e-006  1.84868e-005   0.000397168
    0.0760223      -0.24131     0.0264771      0.049041    -0.0210746   -0.00234073    -0.0133926   0.000848546  -0.000809568    0.00013828  -0.000186107  -0.000634195
    0.0475431     -0.228869     0.0655165     0.0444322    -0.0131265   -0.00628372    -0.0117106   -0.00144994  -0.000816942   0.000147847  -0.000191175  -0.000635146
    0.0288903     -0.227908      0.115646     0.0425769   -0.00515485    -0.0094255   -0.00995455    -0.0016873  -0.000264627  -0.000122791  -0.000366487   0.000691171
  -0.00153304     -0.228072      0.162471     0.0307406     0.0111327    -0.0144829    -0.0122031  -0.000575964  -0.000545755   0.000274776  -0.000359368  7.18117e-005
   -0.0445215     -0.234029      0.188037    0.00704322     0.0371028    -0.0253612    -0.0125411  -0.000911389  -0.000525918  1.86024e-005  -0.000585638  -0.000339495
   -0.0695459     -0.230768      0.265126     0.0023612     0.0349261    -0.0244405    -0.0137485   -0.00119177 -3.21308e-005   0.000145992  -0.000183695  -0.000262147
    -0.108838     -0.239601      0.335102    -0.0127159     0.0456802    -0.0268399    -0.0172614   -0.00142053 -1.92534e-005  -0.000109284  -0.000398547  -0.000677623
    -0.155764      -0.23962      0.371678    -0.0233607     0.0655252    -0.0346166    -0.0146401  -0.000582546 -6.48402e-005    0.00117573   -0.00049033 -8.03934e-005
    -0.194467     -0.223375      0.425809    -0.0199223     0.0710031    -0.0365783    -0.0140593  -0.000594031 -2.58197e-005 -6.84816e-005    0.00015918  4.66252e-005
    -0.265962     -0.199525      0.483312     -0.025925     0.0804295    -0.0388278     -0.014173  -0.000149039  -0.000232549  -0.000573847  -0.000257365   0.000587859
    -0.339425     -0.176073      0.505574    -0.0298329     0.0888841    -0.0368915    -0.0129653   0.000994915 -1.43095e-005    0.00017496  -0.000211493  -0.000255916
     -0.43466     -0.167533      0.516631    -0.0411872     0.0991904    -0.0408291    -0.0138183    0.00031326   0.000502681  3.00463e-005 -3.10127e-005  -0.000575916
     -0.49808      -0.15053      0.513029    -0.0245851     0.0877671    -0.0321645    -0.0141038 -6.04791e-005  2.19517e-006 -9.38863e-005   -0.00042471  -0.000650717
    -0.537062     -0.144238      0.490457  -0.000255598     0.0719136     -0.027031    -0.0148531   -0.00239551   -0.00029104  -0.000184743   0.000315985  -0.000632058
    -0.617123     -0.138385      0.478332     0.0331309     0.0460206    -0.0421607    -0.0138181   -0.00228121  -0.000303446  -0.000170371   0.000905862  9.52853e-005
    -0.720435     -0.128674      0.465277     0.0403477     0.0285402    -0.0342222    -0.0147989   -0.00217303   0.000279001  -0.000512255  -0.000401483 -1.73812e-005
     -0.81958     -0.104225      0.462342     0.0395927     0.0180125    -0.0325823    -0.0140615    -0.0031554   0.000284097  -0.000752583 -4.12821e-005   0.000310953
    -0.935338    -0.0952725      0.442276     0.0543165    0.00230778    -0.0318883    -0.0131081   -0.00276978   0.000481934   0.000254238   0.000230559  -0.000122365
     -1.08622     -0.108141      0.418666     0.0550637   -0.00653531    -0.0311383    -0.0127691    -0.0031729   -0.00022849  -0.000136564  -0.000939202  1.93816e-005
      -1.2115     -0.115229      0.404522     0.0680774    -0.0277766    -0.0319449   -0.00911514   -0.00445993   0.000215515 -9.88606e-005   0.000753325  -0.000514962
     -1.36389     -0.154986       0.38918     0.0678958    -0.0433029    -0.0271426    -0.0119263   -0.00490262  -0.000815212   0.000200084   0.000385966   0.000140299
     -1.57823     -0.200645      0.365184     0.0700759    -0.0674445    -0.0256359    -0.0112118   -0.00491935  -0.000798633 -6.52903e-005   0.000178708  -0.000274282
      -1.8054     -0.251346      0.309721     0.0672655    -0.0863101    -0.0192615    -0.0118947   -0.00523794  -0.000529306   4.7928e-005  2.22253e-005   0.000441702
     -2.02837     -0.289698      0.261788     0.0618201    -0.0983985    -0.0181556    -0.0107084   -0.00515876 -1.24375e-005   0.000138137  -0.000152275  -0.000199568
     -2.23004      -0.31349      0.220711     0.0614062     -0.113889    -0.0128867    -0.0070944   -0.00613301   0.000275201  -0.000251651  -0.000167842   0.000422896
     -2.37418     -0.363317      0.188816     0.0475203     -0.122177   -0.00556128   -0.00817949   -0.00642626 -4.54901e-005   0.000918405 -9.15105e-005   0.000307458
     -2.48877     -0.402229       0.15772     0.0415593     -0.136455   -0.00455782   -0.00767038   -0.00763035 -1.52184e-005   0.000150847  -0.000156644  -0.000202398
     -2.60201     -0.435948      0.118807     0.0485697     -0.149283   -0.00545396   -0.00913993   -0.00712062  4.82325e-006  -0.000359192 -4.42608e-006  -0.000297495
     -2.70049     -0.485097     0.0579418     0.0343693     -0.157179    0.00145386       -0.0149   -0.00630078 -2.80031e-005   0.000648091  -0.000293641  -0.000104163
     -2.77368     -0.505634    -0.0252455     0.0122801     -0.160735    0.00364014    -0.0157482     -0.007231  -0.000500167  -0.000214475   -0.00019376  4.45589e-005
     -2.81267      -0.52696     -0.104833   -0.00282539     -0.163007   -0.00767854    -0.0140854   -0.00601822   0.000295587  -0.000256146   -0.00016976   0.000433132
     -2.82898     -0.545064      -0.16257    -0.0305722     -0.171385   -0.00889976    -0.0192252   -0.00518451  -0.000476204   -0.00022506  -0.000195384  5.64119e-005
     -2.82971     -0.554152     -0.209289    -0.0487833     -0.177518    -0.0131665    -0.0249223   -0.00427006   0.000526156   0.000241918   0.000250302 -8.48953e-005
     -2.78522     -0.573786     -0.254137    -0.0811273     -0.169101    -0.0171293     -0.026902   -0.00460929  3.25829e-005   0.000127799    -0.0001565  -0.000166291
     -2.70243     -0.553762     -0.273002    -0.0909326     -0.163918     -0.016923    -0.0234324   -0.00456542   0.000569178    -0.0005257    0.00016877  -0.000586691
      -2.6119     -0.532442     -0.288937    -0.0973729     -0.174952    -0.0235908    -0.0208014   -0.00547556   0.000533229   0.000482424  -0.000120548  -0.000397127
     -2.47216     -0.482475     -0.290626     -0.108943      -0.18016    -0.0224353    -0.0125477   -0.00498407  4.95789e-005  -0.000111811   0.000189358   0.000154668
     -2.25187     -0.387071     -0.293826      -0.10791     -0.174373    -0.0398734    0.00183314   -0.00610111   0.000338846 -3.03111e-005  -0.000552955   0.000144106
     -2.01681     -0.297721     -0.336525     -0.112166     -0.187121    -0.0590256     0.0176777   -0.00785282  8.24619e-005   -0.00038736  -4.3249e-005  -0.000250142
     -1.75068     -0.201353     -0.393473      -0.10206     -0.200706    -0.0651406     0.0344193    -0.0111831  -0.000218569  2.68566e-005    0.00053299  -0.000136747
     -1.40767     -0.127381     -0.421392     -0.137949     -0.199948     -0.061174     0.0456908    -0.0127197  6.72585e-005   0.000117683  -0.000214042    -0.0001488
     -1.10024     -0.109329     -0.455387     -0.191536     -0.190364      -0.05618     0.0483969    -0.0110389   0.000576242   0.000480151  -0.000188693  -0.000384429
    -0.806867     -0.134872     -0.511736     -0.237136     -0.170271    -0.0658075     0.0453369    -0.0079379   9.8672e-005  -0.000114892   0.000120536   0.000157009
    -0.484561     -0.170553      -0.51162     -0.282046     -0.151037    -0.0563407     0.0427588   -0.00628774   0.000101219  -0.000339854   0.000468188   0.000455038
    -0.182933     -0.196328      -0.48196     -0.298791      -0.11964    -0.0593803     0.0413368   -0.00566516  -0.000192962  6.34366e-005   0.000471713  -0.000186264
     0.188016     -0.174639     -0.445257      -0.30912    -0.0969968    -0.0640087     0.0429318   -0.00484177  8.73003e-005 -8.54291e-005  9.47635e-005   0.000100424
     0.626984      -0.12901     -0.428029     -0.326191    -0.0835636    -0.0525427     0.0492514    -0.0054274   0.000877601  -0.000379573  -0.000101202  6.27516e-005
     0.989561     -0.120184     -0.430944     -0.345375    -0.0657391    -0.0465208     0.0498616   -0.00478483   9.2423e-005  -0.000339316  -0.000137115  -0.000334669
       1.2549     -0.121773     -0.358104     -0.348834    -0.0529783    -0.0561663     0.0537741   -0.00465594   0.000351924  -0.000214178  -0.000298401   0.000352205
      1.51285     -0.123062     -0.274992     -0.363653    -0.0350883    -0.0600777     0.0529132   -0.00298605  8.14352e-005  -0.000316287  -0.000142802  -0.000381983
      1.70173    -0.0617741     -0.158261     -0.326929    -0.0581008    -0.0684974     0.0560629    -0.0056541  -0.000755268   0.000491814 -8.30654e-005  -0.000275443
      1.80654     0.0165529    0.00656169     -0.276871    -0.0951763    -0.0873454     0.0672959   -0.00664769  -0.000464712  -0.000165771  -0.000286104  -8.8885e-005
      1.96252     0.0136234     0.0651303     -0.245919     -0.119196     -0.087728     0.0657873   -0.00514096  5.82372e-005  -0.000825494  6.92212e-005  -0.000530425
      2.05857     0.0120789     0.0784534     -0.230103     -0.120956    -0.0987339     0.0667318   -0.00489486  2.08771e-006   0.000447998 -3.06042e-006  5.92447e-005
      2.09861     0.0299263     0.0817894     -0.209714     -0.126053    -0.0872976     0.0670744   -0.00489671   0.000296029  2.23327e-005  -0.000582538 -4.70203e-005
      2.15111    0.00987218     0.0195099     -0.159914     -0.156508    -0.0599124     0.0588379   -0.00464868  -4.1506e-006   0.000154529  -0.000184065  -0.000345473
      2.14148    -0.0437338   -0.00644817     -0.147922     -0.166722    -0.0558582     0.0474592   -0.00537112  -1.5502e-005  -8.9945e-005   0.000193955  -3.2542e-005
        2.123     -0.101766     0.0371643     -0.143352     -0.172333    -0.0521534     0.0315707   -0.00581289  -6.6622e-005   0.000682803   0.000283192   0.000465558
      2.05198     -0.130574     0.0990536      -0.15419     -0.158994    -0.0548046     0.0227709   -0.00501361   0.000460874   0.000274097   0.000260577   -0.00027664
      1.92324     -0.153588      0.187745     -0.182053     -0.139113     -0.054748     0.0161462   -0.00433246  -0.000247052  -0.000338129  -0.000557368   0.000174938
      1.79897     -0.206721      0.273077     -0.198755     -0.128117    -0.0514272    0.00634457   -0.00472955   0.000235521   0.000272807  -0.000872689  -0.000384056
      1.66722     -0.222299      0.317303     -0.198043     -0.122055    -0.0471704 -2.02791e-005   -0.00543952 -3.34672e-005  -0.000311765  6.49668e-006  -0.000461292
      1.53644     -0.214077      0.360817     -0.198101     -0.113882    -0.0438832    -0.0034238   -0.00713522 -5.81093e-005   0.000199223    -0.0001408  -0.000358582
      1.43279     -0.200295      0.402072     -0.195566     -0.104683    -0.0425701   -0.00395551   -0.00792112  -0.000571032   0.000114269  2.73786e-005   0.000291723
      1.31877     -0.163738      0.442878     -0.174845      -0.10149    -0.0456732   -0.00141992   -0.00980004  -0.000274391  -0.000544151  -0.000198093   0.000507343
      1.20505     -0.113233       0.46579     -0.157349     -0.107402    -0.0461341   -0.00428604   -0.00904735   0.000440155   0.000310065   0.000262694  -0.000241962
      1.08437    -0.0619482      0.485636     -0.150453     -0.108308     -0.045868   -0.00392249   -0.00981585  -0.000567251   0.000336115  -0.000323778  2.21344e-005
     0.969546    -0.0402939      0.505708     -0.152185     -0.101961    -0.0437879   -0.00526525     -0.010646  -0.000348794   0.000370898   0.000802278   0.000131618
     0.899918    -0.0441633      0.508506     -0.157577     -0.100375    -0.0471136    -0.0114638   -0.00926398 -4.51042e-005   0.000183366  -0.000135183  -0.000285202
     0.837274    -0.0713353      0.469696     -0.160915    -0.0910309    -0.0656797    -0.0175366   -0.00903494 -3.53293e-005  -0.000300211   0.000587062   0.000351625
     0.807867     -0.102782      0.382522      -0.13872    -0.0997142      -0.07127    -0.0296597   -0.00799773  3.37529e-005  -0.000749527  -0.000532863   0.000884603
     0.789397     -0.121226       0.30776      -0.11906     -0.105918    -0.0881964    -0.0368304   -0.00512616   0.000752822  9.24281e-005 -6.34143e-005    0.00012258
     0.755031     -0.125208      0.278691     -0.113406     -0.104793    -0.0957456    -0.0423909   -0.00266914   0.000232013   0.000732415  -0.000388573   0.000553892
     0.732691     -0.137139      0.257915    -0.0974191       -0.1116    -0.0910822    -0.0483562   -0.00243912 -3.75566e-005   0.000371762   0.000140365   0.000161347
     0.689471     -0.167165      0.221515     -0.103387     -0.101056      -0.10603    -0.0531685 -8.69818e-005  -0.000290801  1.25931e-005   0.000659134   -0.00023433
     0.638431     -0.191197      0.217722     -0.111253    -0.0839066     -0.117706    -0.0549672   0.000394096   0.000293066   -0.00032088  -0.000660013  -0.000359476
     0.589194     -0.215669      0.236884     -0.121723    -0.0648104     -0.123931     -0.051934  -0.000683578 -2.79845e-005    0.00061792  -0.000235299  -0.000165539
       0.5241      -0.24415      0.252112     -0.152898    -0.0379923     -0.128659     -0.051957    0.00166905     0.0007679    0.00059288  -0.000224938   0.000216663
      0.47808     -0.279856      0.273851     -0.160259    -0.0213815      -0.13654    -0.0525838    0.00168881  -0.000212025  -0.000139104  -0.000884342 -5.44641e-005
     0.420419      -0.29574      0.293435     -0.175107   -0.00155497     -0.134924     -0.050902    0.00234929   0.000274725   0.000255987  -0.000286749   0.000436579
     0.365567     -0.335899      0.302066     -0.182167     0.0173681     -0.135334    -0.0500121    0.00258305  -0.000490379  -0.000203083  -0.000180313   -5.365e-005
     0.323653     -0.384528      0.303724     -0.175555     0.0269596     -0.132346    -0.0468389    0.00375814  -0.000791374   0.000224588   0.000395618  3.89983e-005
     0.291205       -0.4029      0.281294     -0.161774     0.0322751     -0.123028    -0.0443626    0.00507864  -0.000490868  -0.000197623  -0.000193724 -7.28875e-005
      0.29639     -0.402526      0.236167     -0.121548     0.0291841     -0.116814    -0.0423324    0.00472825 -1.60397e-005   0.000175496   0.000423605   0.000422004
     0.295992     -0.332757      0.189816    -0.0834992     0.0291795     -0.113889    -0.0350264    0.00394947   0.000264346   0.000482048  -0.000667603   0.000109479
     0.298648     -0.310242      0.145998    -0.0579824     0.0303187     -0.105915    -0.0315038    0.00253613   0.000793139  -0.000417576  2.21188e-005  1.10897e-005
      0.29325     -0.323995      0.116878    -0.0470224     0.0337586     -0.094022    -0.0267465   0.000240307   0.000282356  -0.000529856   -0.00038534 -7.66129e-005
       0.2877     -0.328533      0.090025    -0.0348062     0.0383605     -0.090135    -0.0254143  9.72723e-006 -3.78577e-005   0.000392839  4.99736e-005   0.000127388
     0.290904     -0.338716     0.0714926    -0.0285426     0.0355589    -0.0759628    -0.0247619    0.00159511   0.000481135  3.16751e-006   0.000593802   0.000115435
     0.272778     -0.336275     0.0754285     -0.024098     0.0381417    -0.0757755    -0.0208796    0.00120121   0.000477286    0.00024455   0.000229888  -0.000203922
     0.277735     -0.339717     0.0594553    -0.0135887     0.0335905    -0.0616684    -0.0220821 -3.52297e-005   0.000470329  5.40029e-006   0.000591168   0.000114903
     0.274137     -0.326525      0.046283   -0.00452091     0.0303638    -0.0501498    -0.0206165  -0.000484661   0.000446407   0.000746663  8.50821e-005  -0.000101896
      0.26253     -0.329656     0.0286708   -0.00252652     0.0340493    -0.0462354    -0.0189846   -0.00116832   0.000462225   0.000242908   0.000226664  -0.000195865
     0.250894     -0.343837     0.0321117    0.00533142     0.0321107    -0.0414119    -0.0178045  -0.000893549   0.000957483   0.000362515   0.000626026  -0.000118465
     0.241813      -0.32621     0.0546838     0.0227882      0.022883    -0.0466264    -0.0162601  -0.000242651   0.000445277   0.000505839   0.000446384   0.000208716
     0.255542     -0.325668     0.0259398     0.0229432     0.0269057    -0.0422771    -0.0188772  -0.000117322   0.000445843   0.000501158   0.000446571   0.000215234
     0.240709     -0.335456     0.0176175    0.00480553     0.0403619    -0.0430408    -0.0191012    0.00116937 -9.59997e-006  -0.000385462 -2.92011e-005  -0.000372165
     0.237246     -0.333461     0.0273573    0.00371605     0.0356528    -0.0410831    -0.0210754 -3.69115e-005   0.000252661  -0.000270848  -0.000183627   0.000342867
      0.24258      -0.33619     0.0397781     0.0144606     0.0252265    -0.0377058    -0.0229503  -0.000388863 -5.53653e-005   0.000386032  5.01373e-005   0.000132921
     0.233106     -0.345905     0.0350009     0.0109986     0.0317257    -0.0421497    -0.0228127   0.000390919   0.000462412   0.000237608   0.000233827  -0.000197079
     0.238305     -0.358604     0.0191987    0.00969168     0.0356167    -0.0405927    -0.0213852   -0.00123486  -0.000339386   0.000306467   0.000772891   0.000141646
     0.231999     -0.348161     0.0275055    0.00509321     0.0299915    -0.0293437    -0.0232577   0.000413527 -5.22381e-005   0.000388426  4.42512e-005   0.000133823
     0.239784       -0.3459     0.0243953      0.016722     0.0254843    -0.0330057    -0.0220343  1.32472e-005    0.00044586   0.000265499   0.000806251   0.000531053
      0.24589      -0.34567     0.0280419     0.0259872     0.0173637    -0.0314396    -0.0222331   -0.00191761   -0.00033092  3.54114e-005   0.000570886  -0.000267637
      0.23467     -0.349283     0.0105877     0.0158518     0.0275555    -0.0305505    -0.0206863    -0.0014832   0.000172281   0.000155748   0.000961196  -0.000182744
     0.238032     -0.357446    0.00213602     0.0198412     0.0278112     -0.035185    -0.0213989    -0.0017146   0.000451386   0.000238736   0.000233717  -0.000198797
     0.244484     -0.355517     0.0169853     0.0253597     0.0152011    -0.0314279    -0.0235714   -0.00135133 -6.12935e-005   0.000146373   0.000414564   0.000445603
     0.247146     -0.354523    0.00878669     0.0326967     0.0163601    -0.0334261    -0.0205523  -0.000982758  -6.2436e-005   0.000383361  5.34122e-005    0.00012656
     0.248146      -0.34779    0.00497882     0.0401791     0.0165839    -0.0345409    -0.0190527    -0.0019229  -0.000277952  -0.000127144  -0.000358537    0.00066272
     0.246613     -0.357422    0.00555229     0.0356799     0.0158794     -0.032827    -0.0194064   -0.00279647  -0.000282272  -0.000123271  -0.000359056   0.000660394
     0.238079     -0.344112     0.0139843      0.032753    0.00785012    -0.0246762     -0.020686   -0.00054134    0.00024382  -0.000514984   0.000189011   0.000654803
     0.240207     -0.339018     0.0156129     0.0388236    0.00733552    -0.0294107    -0.0204926  1.25529e-005    0.00073887  7.62153e-005  -0.000126812   0.000104847
     0.250177     -0.350847   -0.00375565     0.0439566     0.0139116    -0.0321798    -0.0203905   -0.00108668  -0.000345066   0.000294495   0.000786099   0.000142052
     0.257588     -0.343163   -0.00528348     0.0441068      0.011366    -0.0271469    -0.0228533  -0.000658868 -6.30685e-005   0.000375675  5.92745e-005   0.000133264
     0.253491     -0.350463     0.0107551     0.0365864     0.0131353    -0.0267341    -0.0240925    0.00107699 -5.38438e-005   0.000138211   0.000417294   0.000447988
     0.258326      -0.35224     0.0159515     0.0471902     0.0106252    -0.0294288    -0.0248254    0.00265485   0.000448192   0.000250738   0.000821598   0.000529135
     0.267389     -0.355961    0.00315755     0.0477425      0.015404    -0.0291569    -0.0234968    0.00123652   -0.00025178  -0.000641267  -0.000206039   0.000569609
     0.253598     -0.347488    0.00737071      0.034903     0.0169359    -0.0230381    -0.0239472   0.000414955 -4.06742e-005  -0.000126743   0.000201623  3.88582e-005
      0.25241     -0.329091     0.0102483     0.0435949     0.0101867    -0.0220811      -0.02413    0.00228658 -3.54776e-005   0.000103423  -0.000152532   -0.00027269
     0.257308     -0.334004    0.00109572     0.0395151     0.0159431    -0.0220649    -0.0225353    0.00151911   0.000233199 -1.82079e-005  4.24945e-005   0.000755891
     0.259159     -0.338538    0.00795023     0.0398711      0.012761    -0.0261016    -0.0245214    0.00286982    0.00074882  6.79368e-005  -0.000124761   0.000110204
     0.268055     -0.337967  -0.000471221     0.0499749     0.0118895    -0.0263639     -0.022818    0.00303583 -3.08294e-005  -0.000137194   0.000206153  3.93716e-005
     0.263231     -0.335143   -0.00895744     0.0450536     0.0165457    -0.0250465    -0.0225074    0.00228029   0.000463368    0.00022113   0.000242943   -0.00019139
     0.259006     -0.328766    -0.0120966     0.0454682     0.0159186    -0.0279366    -0.0214642    0.00286683   0.000470412 -1.92735e-005   0.000601236   0.000126374
     0.258716     -0.313497    -0.0133402     0.0475389     0.0128786    -0.0263091    -0.0206211    0.00285376   0.000254659 -5.48774e-005  -0.000527843  3.33238e-005
     0.249589     -0.302633    -0.0178975     0.0404531     0.0161108    -0.0242228    -0.0196741    0.00237749   0.000470557   0.000218677   0.000238097  -0.000181498
      0.26387      -0.31001     -0.022783     0.0478928     0.0156498    -0.0289656    -0.0200299    0.00147515   0.000250464 -5.37966e-005  -0.000529131   3.4371e-005
     0.274383     -0.317671   -0.00878074       0.05309    0.00837579    -0.0248876    -0.0203841    0.00211643 -3.18856e-005  -0.000138352   0.000205029  4.37087e-005
     0.271583     -0.304743    -0.0164506     0.0497839    0.00863708    -0.0248028    -0.0200776    0.00109061   0.000761547  -0.000202328  -0.000339504  -0.000293382
     0.278544     -0.305741    -0.0233387     0.0487796    0.00818817    -0.0251756    -0.0214025    0.00184862   0.000269343  -0.000561609  -0.000378599 -5.83036e-005
     0.281187      -0.32088    -0.0211987     0.0473767     0.0132942    -0.0243966    -0.0197917    0.00123926 -3.40837e-005  -0.000135534   0.000200815   4.4057e-005
     0.287176     -0.323272    -0.0258717     0.0470851      0.013709     -0.025208     -0.020801    0.00142333   0.000231731   0.000214457  -0.000315264   0.000441675
     0.289823     -0.328201    -0.0344461     0.0423627     0.0147233    -0.0176298    -0.0228848    0.00228884   0.000479887 -4.83981e-005  2.92444e-005  -0.000597086
      0.29521     -0.332581    -0.0362559     0.0486797     0.0161571    -0.0224099    -0.0234568    0.00167513  -1.6462e-005   -0.00064403   0.000349862 -4.91231e-005
     0.289401     -0.329815     -0.015513     0.0582471     0.0124034    -0.0246752    -0.0233423    0.00378254 -4.68478e-005   0.000361664  6.18663e-005   0.000137639
     0.282145     -0.318487   -0.00454534     0.0559974    0.00631952    -0.0184875    -0.0251737    0.00259601   0.000250203  -0.000295833  -0.000159966   0.000350298
     0.293226      -0.33666    -0.0121981     0.0525032    0.00887647    -0.0241247    -0.0268692    0.00319311  -5.0224e-005   0.000362387  6.65252e-005   0.000138509
     0.299664     -0.347929   -0.00813204     0.0571485     0.0102949    -0.0247556    -0.0253847    0.00146339 -3.86673e-005  -0.000375749   0.000570407   0.000353845
     0.305914     -0.345579    -0.0116881     0.0586742    0.00912828    -0.0195281     -0.027063    0.00176216 -2.59466e-005  -0.000406414  6.76573e-007  -0.000370788
     0.307915     -0.342159    -0.0171349     0.0538665    0.00937243    -0.0181556    -0.0269911    0.00251993  -0.000550631  7.92825e-006  2.50111e-005    0.00037083
     0.305613     -0.336564    -0.0137964     0.0539346    0.00846064    -0.0188147    -0.0259009    0.00180604  -0.000537018  -0.000257312  -0.000188405 -4.02048e-005
     0.308422     -0.336246    -0.0153322     0.0548583    0.00863978      -0.01938    -0.0269453    0.00165399   0.000228296 -2.72538e-005  5.41523e-005   0.000757536
     0.315349     -0.333116    -0.0221744      0.054566     0.0104676    -0.0177577    -0.0263042   0.000388374    0.00046935  -0.000286991   0.000397443  -0.000283205
     0.315319     -0.327433    -0.0247055     0.0566252    0.00946144    -0.0186102    -0.0263197   0.000215389   0.000450936   0.000216582    0.00025239  -0.000186791
     0.318307     -0.318947    -0.0261559     0.0587414    0.00594677    -0.0161488    -0.0251704   -0.00135329   0.000442248   0.000456732   -0.00010623  -0.000502066
     0.316907     -0.311488     -0.033501     0.0543428     0.0110652       -0.0168     -0.023656    -0.0017845 -3.36704e-005  -0.000403275 -5.81422e-006  -0.000360771
     0.313967     -0.300038    -0.0278124     0.0565518    0.00896968    -0.0173049    -0.0228821   -0.00190581  -0.000263206  -0.000409196   -0.00056312   0.000271765
     0.324716     -0.298006    -0.0180957     0.0684456    0.00178678    -0.0202129    -0.0230502   -0.00288056   0.000739279  -0.000202891  -0.000328838  -0.000292832
      0.34049      -0.30478    -0.0177231     0.0768043   -0.00182358    -0.0215685     -0.023453   -0.00398588   0.000239149  -0.000797397 -6.29564e-006   0.000253228
     0.339578       -0.3074    -0.0218988     0.0696068   0.000800621    -0.0161528    -0.0241735   -0.00362053 -6.38211e-005   0.000101074  -0.000143021  -0.000269122
     0.338361     -0.315556    -0.0151918     0.0654292    0.00278443    -0.0195453    -0.0238787   -0.00278104   0.000705923   0.000333443  9.66963e-005   0.000524095
     0.355269     -0.312114   -0.00777029     0.0827472   -0.00494809    -0.0224795    -0.0225314   -0.00252419   0.000221136 -5.55281e-005  -0.000509134  2.54891e-005
     0.359741     -0.301072    -0.0203154     0.0836085   -0.00415896    -0.0212106    -0.0225335  -0.000976072 -5.44079e-005  9.25151e-005   -0.00013871  -0.000271725
     0.357234     -0.307767    -0.0196997     0.0711583     0.0019868    -0.0192417    -0.0250488   -0.00255604   0.000740027  -0.000442593   3.3159e-005  2.10693e-005
     0.357707     -0.320165    -0.0141953     0.0622489    0.00369093    -0.0158878    -0.0251667   -0.00196308   0.000720541   0.000304679   -0.00047477  -0.000203964
     0.361966     -0.325935    -0.0161939     0.0643755    0.00407438    -0.0184175    -0.0252528    -0.0011001 -5.57054e-005   0.000100178  -0.000143407  -0.000275063
     0.357681     -0.318084    0.00909274     0.0821932   -0.00368363    -0.0214115    -0.0258711    0.00101431 -8.74767e-005    0.00110277  -0.000426791 -8.76654e-005
     0.356591     -0.312467    0.00933602     0.0871865   -0.00579345    -0.0230553    -0.0247237  -0.000699745 -6.02918e-005   0.000332539  -0.000492425  -0.000593867
     0.359103     -0.315739   -0.00161974      0.077553    -0.0014795    -0.0181432    -0.0260034    -0.0023479  -0.000293398  9.36351e-005  -0.000694961   0.000356238
     0.358523     -0.322516    -0.0072018     0.0795368    0.00395925    -0.0230795    -0.0253352  -0.000627597  -0.000270657  -0.000176027  -0.000909619 -5.71955e-005
     0.373072     -0.326298   -0.00615071     0.0803842    0.00103903    -0.0277124     -0.026989   -0.00106069  -0.000270365  -0.000415373  -0.000546118   0.000257902
     0.372877     -0.316308    0.00662438     0.0785656   -0.00562003    -0.0151325    -0.0269351   -0.00126709   0.000220034   0.000181491  -0.000864178  -0.000289214
     0.354144     -0.311037   -0.00455624     0.0684715    0.00386978     -0.016169    -0.0256768  -7.9456e-005    0.00023222 -5.69357e-005  -0.000513537  3.16962e-005
      0.35965     -0.311467   -0.00506494     0.0665228  -0.000537181    -0.0157442    -0.0254863   -0.00243045   0.000238347  -0.000319333  -0.000724841  -0.000380518
     0.371233     -0.300996   0.000972525      0.087036   -0.00896488    -0.0158389    -0.0235812   -0.00280492   0.000202521   0.000210063  -0.000293438   0.000439577
     0.361887     -0.283047     0.0180002     0.0995209    -0.0122351    -0.0274445     -0.022282    -0.0016536   0.000205883   0.000441984  -0.000647232   0.000123235
     0.360309      -0.27913     0.0121573     0.0882359   -0.00951917    -0.0241361    -0.0242246   -0.00215957   -0.00083826  -0.000110479    0.00019849  -0.000337435
     0.373368     -0.290679   -0.00798231     0.0818722   -0.00241301    -0.0201989    -0.0244618   -0.00430588 -7.09198e-005   0.000336021  -0.000495736  -0.000585334
     0.377465     -0.292206    -0.0103118     0.0824032  -0.000423905    -0.0234414    -0.0235338   -0.00383372   0.000199598   0.000448431   -0.00065538   0.000126751
     0.373893     -0.292475   -0.00927411     0.0807069   0.000109435    -0.0185267     -0.024657   -0.00527907   0.000691013   0.000569547  -0.000256094   0.000211498
     0.368591     -0.284115    0.00309246     0.0790269    -0.0028761    -0.0179293    -0.0229134   -0.00554913   0.000724973  -0.000199974   -0.00032387  -0.000294685
     0.373111     -0.282579    -0.0122045     0.0789994   0.000305828    -0.0166427     -0.022514   -0.00502643    0.00121061     0.0001827   0.000285898   0.000201809
     0.370812     -0.287161      -0.01939     0.0765961     0.0043094    -0.0147571    -0.0234372   -0.00378111 -4.32675e-005  -0.000644952   0.000361204 -4.35074e-005
      0.35936     -0.275919   -0.00482265     0.0655137    0.00560517    -0.0166093    -0.0239484   -0.00311666   0.000228188  -0.000292648  -0.000157833    0.00035739
     0.363433      -0.28647    -0.0198065     0.0604752     0.0132249    -0.0181166    -0.0246473   -0.00340162   0.000243173  -0.000558078   -0.00037393 -5.40868e-005
     0.365224     -0.295044   -0.00886907     0.0653129    0.00589797    -0.0136362    -0.0248894   -0.00309868 -4.29857e-005  -0.000403741  9.81787e-007  -0.000360836
     0.365655     -0.287487     0.0105327     0.0702752   -0.00342506   -0.00847743    -0.0252116   -0.00209129   0.000441455 -2.09693e-005   0.000617854   0.000133454
     0.370755     -0.301813    0.00901655     0.0777875   -0.00151727    -0.0140957    -0.0259503   -0.00348498   0.000215742 -5.30958e-005  -0.000508553  3.09732e-005
     0.376058     -0.312777    0.00572144     0.0686971   0.000424752    -0.0116324    -0.0275966   -0.00358432 -5.30663e-005  -0.000163461  -0.000351336  -0.000683231
     0.382123     -0.310863   0.000780496     0.0655958    0.00309703    -0.0128136    -0.0247203   -0.00305315   0.000449212  -4.4232e-005  4.30414e-005  -0.000601718
     0.387092     -0.312768   0.000642449     0.0751902    0.00232453    -0.0196573    -0.0240417   -0.00297545 -6.79627e-005   0.000340113  -0.000499461  -0.000593398
     0.380603      -0.31508   0.000349436      0.065754    0.00498006    -0.0128183    -0.0260436   -0.00520547   0.000225003  -0.000312522  -0.000726619  -0.000382409
     0.381756     -0.317084   -0.00818426     0.0605549    0.00502614   -0.00833719    -0.0267875   -0.00412726   0.000180263   0.000724671  -0.000448647   0.000536891
     0.391275     -0.314652    -0.0121332     0.0630264      0.002613    -0.0112506    -0.0238978   -0.00379522    0.00071472  7.04629e-005  -0.000117127   0.000111315
     0.394234     -0.308649   -0.00578598     0.0661083    -0.0033252    -0.0109106    -0.0241281   -0.00463347   0.000726419  -0.000196297  -0.000326199   -0.00029944
     0.403592     -0.315745    -0.0209156     0.0685399     0.0027562    -0.0107187    -0.0241387   -0.00641147 -8.18383e-005   0.000346844  -0.000502729   -0.00059119
     0.404563       -0.3159    -0.0308125     0.0635443    0.00682845   -0.00970588    -0.0235069   -0.00704908  -0.000593839   0.000259366  -0.000334616  5.47192e-005
     0.414044     -0.309716    -0.0318399     0.0719259    0.00218125    -0.0105964    -0.0212653   -0.00639302 -8.06142e-005   0.000346042  -0.000505353  -0.000591582
      0.41878      -0.30874    -0.0311183     0.0700009     0.0020405   -0.00856332    -0.0217223   -0.00620933 -7.99881e-005   0.000346046  -0.000505485  -0.000590694
     0.411467      -0.30508    -0.0203573     0.0709923   0.000567777   -0.00924018    -0.0218035    -0.0044117   0.000247636  -0.000820737  -0.000583451  -0.000477214
     0.414305     -0.301925     -0.030067     0.0691622    0.00358282    -0.0103401     -0.019251   -0.00553408   0.000226819  -0.000312802  -0.000734149  -0.000382964
     0.415212     -0.299028    -0.0402638     0.0624833    0.00626586   -0.00787516    -0.0190662   -0.00647962   0.000707518  7.43554e-005  -0.000125395   0.000114167
     0.415493     -0.299309    -0.0393749     0.0633487    0.00583606   -0.00736508     -0.021074   -0.00673183 -7.61606e-005   0.000108936  -0.000150961  -0.000269678
     0.412517     -0.290462     -0.031369     0.0590131     0.0046842   -0.00218072    -0.0225987   -0.00708609   0.000206375 -4.39375e-005  -0.000521626  3.72288e-005
      0.42083      -0.28685    -0.0370321     0.0640183    0.00764112   -0.00295538    -0.0221417   -0.00693643   0.000243486   -0.00105609  -0.000230085   -0.00015135
     0.425697     -0.290509    -0.0418176     0.0629208    0.00855648   -0.00182023    -0.0214392    -0.0068925   0.000400239   0.000970078  -0.000258194  -0.000404563
     0.439201     -0.297439    -0.0348893     0.0723149    0.00687947   -0.00438497    -0.0228865   -0.00570124   0.000226477  -0.000554237  -0.000372608 -6.12917e-005
      0.45246     -0.290996    -0.0335883      0.083429    0.00413022   -0.00949106    -0.0210852   -0.00464151 -5.89127e-005  7.13009e-005  -0.000716457  -0.000999026
     0.441887     -0.273691    -0.0205412     0.0747047    0.00412215    -0.0017461    -0.0216748   -0.00491851 -6.80277e-005  -0.000136203   0.000211207  5.19863e-005
     0.446003     -0.270813    -0.0181915     0.0745592    0.00404265  5.26615e-005    -0.0225244   -0.00672544  -0.000576763 -1.32181e-005  -0.000546133  -0.000346368
     0.456028     -0.272254    -0.0197642     0.0785974    0.00099915     0.0036248    -0.0229195   -0.00689671 -8.40459e-005   0.000342482   -0.00050342  -0.000580337
     0.454033     -0.270258    -0.0266519     0.0744939    0.00921568    0.00327014    -0.0211086   -0.00540964    0.00021056 -5.02056e-005  -0.000522591  3.96355e-005
      0.46465     -0.265788    -0.0321336     0.0781091    0.00737873     0.0025135    -0.0228407   -0.00668867   0.000504135  -0.000472121    -0.0011025 -6.65118e-005
     0.472406     -0.254301    -0.0301803     0.0862412    0.00202214    0.00187444    -0.0226715   -0.00710901 -8.07788e-005  9.91368e-005  -0.000143337  -0.000258655
     0.470407     -0.250616    -0.0312093     0.0887935    0.00407074  -0.000156704    -0.0208463   -0.00832977     0.0003949     0.0007245   0.000107958  -8.1863e-005
      0.47834     -0.253826    -0.0319004     0.0836256    0.00125118    0.00500513    -0.0214941   -0.00870399   -0.00060081   0.000252251  -0.000332215  6.86941e-005
     0.481566     -0.248786    -0.0469805       0.08749    0.00459206    0.00174739    -0.0175305   -0.00854318  -0.000314262  9.77183e-005  -0.000708411   0.000370101
     0.476883       -0.2434    -0.0458689     0.0907852    0.00400301  3.58654e-005    -0.0174136   -0.00905119   0.000179477    0.00045341  -0.000666589   0.000137713
     0.471894     -0.236431    -0.0319676       0.08639   0.000412421    0.00426512    -0.0200962   -0.00905541   0.000203063   -0.00052832   0.000200252     0.0006802
     0.481756     -0.238458     -0.032933      0.094632   -0.00132251   0.000460443    -0.0186487   -0.00909351  -0.000103023    0.00036749  6.82168e-005   0.000152044
     0.485414     -0.243043    -0.0363119     0.0912186   0.000332014    0.00024739    -0.0182818   -0.00987261  -0.000105887   0.000370277   6.6439e-005   0.000150697
      0.47425     -0.242297    -0.0353237     0.0835239    0.00462005    0.00486686     -0.017955    -0.0100081   0.000676541   0.000337985  8.97707e-005   0.000538162
      0.48265     -0.241528    -0.0330432     0.0884417    0.00175537    0.00645157    -0.0193533   -0.00985724  -0.000106562   0.000371333  6.52697e-005   0.000153157
     0.497037     -0.244009    -0.0462793     0.0966333  -0.000436696    0.00828946    -0.0177054   -0.00811951   0.000198218 -5.40141e-005  -0.000518501  4.26248e-005
     0.498015     -0.245212    -0.0479686      0.095652    0.00211219    0.00907887     -0.016573   -0.00733273   0.000416219   0.000217804   0.000249206  -0.000177646
     0.487449     -0.244254    -0.0330515     0.0857213    0.00233008     0.0104331    -0.0196389   -0.00681861   0.000207164   -0.00029141  -0.000161265   0.000361444
      0.49011     -0.257312    -0.0287361      0.092821    0.00242539    0.00635767    -0.0176942   -0.00741308 -8.40596e-005   0.000103261  -0.000148764  -0.000265571
     0.491559      -0.25927    -0.0252971     0.0929862   0.000341588    0.00560713    -0.0175039    -0.0062864 -7.98031e-005   0.000101723  -0.000147896  -0.000266982
     0.483518     -0.255335    -0.0372542     0.0832485     0.0069522     0.0127853    -0.0183485   -0.00592298 -7.62812e-005   0.000102428  -0.000153672  -0.000260668
     0.496658     -0.252482    -0.0449231      0.084436    0.00771087     0.0151796    -0.0187555   -0.00664849 -7.95538e-005   0.000102263  -0.000153644  -0.000258899
     0.501463     -0.248038    -0.0284057     0.0906818  -0.000372238    0.00980225    -0.0203973   -0.00634706 -9.51818e-005   0.000365549  6.73816e-005   0.000151236
     0.497503     -0.244834    -0.0267811     0.0885142    0.00159619    0.00841052    -0.0191911   -0.00669261  -0.000378803   0.000521037   0.000436058  -0.000151329
     0.495078     -0.239386    -0.0389334     0.0835197    0.00875232     0.0122496    -0.0162981   -0.00754551   0.000701278  6.88241e-005  -0.000128184   0.000127375
     0.499705     -0.241019    -0.0380102     0.0870346    0.00282604     0.0174502     -0.016438   -0.00583615   0.000404195     0.0007242  9.92301e-005 -8.09699e-005
     0.507423     -0.233928    -0.0411188     0.0890083   0.000686999     0.0151328    -0.0161012   -0.00511854   0.000408161   0.000720817   0.000100645 -7.95605e-005
     0.514171     -0.233444    -0.0589116     0.0916437    0.00908365    0.00395112    -0.0131498   -0.00647851   0.000707738    6.305e-005  -0.000128894   0.000126074
     0.516903      -0.22967    -0.0528757     0.0896417    0.00547801     0.0131057    -0.0158507   -0.00747345 -7.99874e-005   0.000100106  -0.000154468  -0.000255504
     0.515519     -0.219822    -0.0543986     0.0888659    0.00897612      0.012147    -0.0140319   -0.00846652   0.000397961   0.000725212  9.52707e-005 -7.61324e-005
     0.515153     -0.217351     -0.070171     0.0883825     0.0158561     0.0153411    -0.0120098    -0.0075441   0.000405842   0.000485875   0.000447467   0.000242299
     0.525025     -0.217282    -0.0639712     0.0854688    0.00955254     0.0228138    -0.0142854   -0.00763486   0.000437444   -0.00028563   0.000384414  -0.000261774
     0.530285     -0.208731    -0.0644806     0.0849469    0.00696642     0.0205977    -0.0144825   -0.00679508   0.000726023  -0.000442723  1.49707e-005  4.31258e-005
     0.531615     -0.205238    -0.0668264     0.0854484    0.00517409     0.0241776    -0.0133479   -0.00711718   0.000690863   0.000329999  8.03528e-005   0.000549428
     0.529447     -0.221664    -0.0583388     0.0883924    0.00787698     0.0158641    -0.0143756   -0.00899273  -0.000100646   0.000369847  5.47913e-005   0.000157244
     0.517862     -0.226143    -0.0540427     0.0805925     0.0108508     0.0188201     -0.014811   -0.00719919   0.000919063   0.000339352   0.000637771 -8.72239e-005
     0.531626     -0.246005    -0.0629386     0.0873576     0.0100661     0.0208599    -0.0133885   -0.00696096  -0.000575611  -0.000252111  -0.000202209 -2.75432e-005
     0.536018     -0.223464    -0.0796015     0.0999442     0.0121211     0.0197922    -0.0106577   -0.00610573   0.000408018   0.000481747   0.000448966   0.000238699
     0.535378     -0.163369    -0.0692835      0.100525     0.0043133     0.0246497    -0.0106455   -0.00574316   0.000717889   -0.00018491   0.000226465   0.000464629
     0.538955     -0.167503    -0.0617945      0.103451    0.00116815     0.0182923     -0.012245   -0.00533288   0.000220462   -0.00030539  -0.000167569   0.000379449
     0.534336      -0.18901    -0.0753325     0.0987261     0.0104787     0.0199951    -0.0114727   -0.00671489   0.000709137  5.76327e-005  -0.000133419   0.000141332
     0.540404     -0.189893    -0.0740928     0.0974159    0.00742488     0.0254794    -0.0130661   -0.00450528   0.000433106    0.00020732   0.000239524  -0.000159362
     0.526641     -0.179826     -0.059117     0.0927189    0.00794763     0.0246656    -0.0130554   -0.00325722 -5.80076e-005  8.84517e-005  -0.000161004  -0.000239835
     0.529167     -0.174627    -0.0578808     0.0996927    0.00439674     0.0262311    -0.0109895   -0.00459055   0.000720372  -0.000183861   0.000226401   0.000460734
      0.53232     -0.172087    -0.0658208       0.10059     0.0027468     0.0286537     -0.012492    -0.0034947   0.000208132   0.000198754  -0.000317121   0.000475749
     0.535227     -0.169566    -0.0717003      0.105632   0.000949195     0.0254194   -0.00883551   -0.00505687   0.000719259  -0.000185568   0.000226512   0.000460689
     0.546276     -0.161007    -0.0792735      0.113331   -0.00370935     0.0265198   -0.00837793   -0.00544618 -6.17494e-005    -0.0003913   0.000559863    0.00039344
     0.539689     -0.153466    -0.0808463      0.100943    0.00169666     0.0279367    -0.0080085   -0.00453749   0.000210975 -3.89742e-005  3.67563e-005   0.000794927
     0.557599     -0.160483    -0.0901821      0.110738  -0.000531643     0.0229241   -0.00720568   -0.00521452   0.000717363  4.91021e-005  -0.000132035   0.000145717
      0.56103     -0.151713      -0.10714      0.107889    0.00421726     0.0238566   -0.00641777   -0.00482334   0.000226336   -0.00030933   -0.00017684   0.000383931
       0.5441     -0.134071      -0.11007     0.0982861    0.00707426       0.03059   -0.00505317   -0.00527661   0.000440358   0.000203303    0.00022836  -0.000144655
     0.556769     -0.141158       -0.1107      0.110569    0.00279305     0.0277598    -0.0037468    -0.0065104 -6.31073e-005  -0.000152623   0.000191394  8.27733e-005
     0.565915     -0.148587     -0.101729      0.115962  -0.000721585     0.0246075   -0.00538622   -0.00643911    0.00022083  -0.000545986   0.000184662   0.000698329
     0.566833     -0.140173     -0.102496      0.120011   -0.00532351     0.0228734   -0.00429125   -0.00553763 -4.54099e-005  -0.000424365 -1.39022e-005  -0.000330978
      0.55831     -0.132716     -0.101708      0.118249  -0.000837787     0.0213354   -0.00412845   -0.00580402  -0.000558371  -0.000275384   -0.00020293 -4.76218e-008
     0.551222     -0.127903     -0.099028      0.107849    0.00136153     0.0300026   -0.00560144   -0.00619312 -7.64695e-005    0.00011254   0.000406064   0.000499346
     0.553073     -0.126447     -0.118466     0.0992222    0.00789684     0.0252818   -0.00696991   -0.00550284 -5.71122e-005   8.1205e-005  -0.000167832  -0.000223551
     0.548393     -0.114662     -0.106531      0.110466    0.00393507     0.0265838   -0.00601567   -0.00594867  -7.3162e-005   0.000108235   0.000406499   0.000504634
     0.544076    -0.0993455    -0.0892484      0.120558   -0.00311472     0.0319128   -0.00542026   -0.00653263   0.000417962   0.000463866   0.000450811   0.000272827
     0.532907    -0.0971451    -0.0918291      0.109538    0.00664981     0.0281154   -0.00380186   -0.00530896 -8.66047e-005   0.000613908   0.000256057   0.000602278
     0.547674     -0.110809     -0.103683      0.113971    0.00390892     0.0306685   -0.00532966   -0.00408767  -0.000334543 -7.92512e-006   0.000563908  -0.000208233
     0.562296     -0.109711     -0.104268      0.114545   -0.00386726     0.0291756    -0.0105631   -0.00537211 -6.02572e-005  7.35861e-005  -0.000155579  -0.000218464
     0.554905     -0.104199     -0.105379      0.118104   -0.00253044     0.0327782   -0.00633123    -0.0050014 -5.53555e-005  -0.000163179   0.000197301  9.65128e-005
     0.554071     -0.109332     -0.117236      0.119133    0.00217119     0.0328439   -0.00446834   -0.00566225 -3.94261e-005  -0.000666105   0.000339077  6.01337e-008
     0.549248    -0.0973971     -0.110434       0.10979    0.00237473     0.0321109   -0.00600169   -0.00505804  -0.000547651  -0.000518466   0.000152309   0.000333715
     0.551965    -0.0982146     -0.115984      0.109509      0.003424     0.0333372   -0.00415389   -0.00563497 -6.97736e-005   0.000106877   0.000402663   0.000510055
     0.556417     -0.103354     -0.128253      0.104076    0.00665418     0.0289831   -0.00372949   -0.00655782 -5.59874e-005  -0.000157789   0.000187702  9.80589e-005
     0.557759    -0.0961842     -0.124367      0.104822    0.00360332     0.0308073    -0.0020896   -0.00717267  -0.000556098  -0.000274248  -0.000212531  1.49871e-005
     0.559038     -0.094161     -0.125618       0.10623     0.0019411     0.0312264   -0.00138722   -0.00815055  -0.000843634  -0.000119106   0.000158758  -0.000287798
     0.552748    -0.0866428     -0.126834      0.102961    0.00222429     0.0335781   0.000373471   -0.00763768 -6.05749e-005  8.38976e-005  -0.000175337  -0.000216956
     0.551719    -0.0936554     -0.135426     0.0976163    0.00900117     0.0327701    0.00186138   -0.00815351   0.000137504   0.000626191   0.000802179 -2.70487e-005
     0.549515     -0.104151     -0.133688     0.0888261     0.0100963     0.0354583  -0.000453322   -0.00739367  -0.000551595  -0.000505976   0.000136828   0.000331313
      0.53958    -0.0909231     -0.120579     0.0922154    0.00702635     0.0350258   -0.00146462   -0.00639365  -0.000353724   0.000505253   0.000405976  -0.000106281
      0.53841     -0.099666      -0.11767      0.100209     0.0103797     0.0268111    0.00327205   -0.00801691   -0.00055695   -0.00026628  -0.000222204  8.94768e-006
      0.53151      -0.10689     -0.116856      0.102373    0.00448874       0.03318    0.00225178   -0.00767163 -6.00404e-005  -0.000148632   0.000180021  9.12234e-005
     0.523223    -0.0965804    -0.0975225      0.101493   -0.00227388     0.0325908  -0.000611397   -0.00513073   -0.00026412  -0.000426781  -0.000584206   0.000314702
     0.518643     -0.102133    -0.0744264      0.104118   -0.00230754     0.0251676   0.000658586   -0.00423083   0.000432946   0.000469304   0.000440749   0.000266243
     0.510202     -0.105873    -0.0863834     0.0881217    0.00329789     0.0334026  -0.000204732   -0.00361508 -2.38567e-005  -0.000656112   0.000326539 -1.60339e-006
     0.502821     -0.115465    -0.0916568     0.0758876    0.00796853     0.0392094   -0.00273246   -0.00216214 -1.77316e-005  -0.000655797   0.000323483  1.22016e-006
      0.48773     -0.112126    -0.0941592     0.0705535     0.0132529     0.0371773   -0.00148374    -0.0011504  -0.000225294  -0.000927754  -0.000452002   0.000222291
      0.48711    -0.0995354    -0.0914773      0.078276    0.00747025     0.0414634  -0.000124199   -0.00295393   -0.00035739    0.00101407   0.000253289 -1.40675e-005
     0.489833     -0.106439    -0.0741091     0.0861945    0.00230347     0.0399618 -1.68067e-005   -0.00332674  -4.2047e-005  -0.000148541   0.000178782  9.32066e-005
     0.482081     -0.114415    -0.0740951     0.0731919    0.00735401     0.0409424   -0.00208985   -0.00211461 -3.58675e-005  -0.000147566   0.000175986  9.48692e-005
     0.476429     -0.110848      -0.08677     0.0665196     0.0125328      0.041931   -0.00153331   -0.00451575 -4.01703e-005  -0.000381021   0.000530076   0.000414542
     0.468073     -0.107207    -0.0840642     0.0500321     0.0155612     0.0470508   -0.00401603   -0.00337613  -0.000268661   9.1271e-005  -0.000748389   0.000418267
     0.463195    -0.0991084    -0.0815081     0.0565712     0.0112659     0.0511433   -0.00193518    -0.0035719 -5.54968e-005   0.000362888  2.20407e-005   0.000198959
     0.453772     -0.084156     -0.081925     0.0628298     0.0170441     0.0374479    0.00384928   -0.00535106  -0.000537767  -0.000257694   -0.00023672   1.8662e-005
     0.454628    -0.0841916    -0.0678306       0.05928     0.0118385     0.0416314    0.00202844   -0.00584241  -0.000562273   0.000487749  -0.000738403  -0.000202832
     0.456497    -0.0840104    -0.0563455     0.0665286    0.00782384     0.0488875    0.00276987   -0.00771657  -0.000371672   0.000792273   0.000604958   0.000303034
     0.455038    -0.0825651    -0.0665162     0.0628551      0.016044       0.04212    0.00361099   -0.00734453 -8.62104e-005   0.000876057   -0.00012915   0.000290035
     0.450835    -0.0796181    -0.0684522     0.0551883     0.0185269     0.0435345    0.00299904   -0.00810945  -0.000564555  1.70785e-005 -2.60453e-005   0.000431751
     0.448055    -0.0819173    -0.0555168      0.054301     0.0170842     0.0441603    0.00277162   -0.00927071 -9.33129e-005     0.0008824   -0.00013054   0.000290823
     0.443435    -0.0869231    -0.0470511     0.0507635     0.0148299     0.0490625    0.00173496   -0.00879218 -9.28206e-005   0.000883777  -0.000130016   0.000290284
     0.411083    -0.0699805    -0.0420365     0.0385457     0.0228725     0.0521418     0.0036028   -0.00742501  -0.000275322  -0.000130067  -0.000405263   0.000738455
     0.400889    -0.0753895    -0.0408145     0.0346897     0.0263706     0.0478716    0.00468359    -0.0078771  -0.000577827   0.000531813  -0.000183013   0.000528118
     0.399091    -0.0768395    -0.0388821     0.0321602      0.024006     0.0526265    0.00304058    -0.0083305 -6.69394e-005   0.000384161  5.26415e-006   0.000201601
     0.393199    -0.0801103    -0.0337683     0.0327216     0.0248872     0.0523315    0.00296811   -0.00737109  -0.000347308   0.000537121   0.000376253  -0.000102063
     0.377106    -0.0835137    -0.0281736     0.0273465     0.0277919     0.0507824    0.00397129   -0.00648717 -5.59828e-005   0.000146694   0.000360396   0.000515588
     0.354162    -0.0772754    -0.0165768     0.0100202     0.0311259     0.0608687    0.00231059   -0.00624399  -0.000819061 -7.97748e-005   0.000114045  -0.000274681
     0.351886    -0.0911059   -0.00160487     0.0147074      0.024838       0.05804    0.00113231    -0.0071788  -0.000539961  -0.000469479   0.000107735   0.000337931
     0.342053    -0.0886262   -0.00406664     0.0164594      0.023862     0.0586617    0.00159976   -0.00662505  -0.000842038    0.00042596 -2.61392e-005  -0.000185347
      0.33623    -0.0819155   0.000876725     0.0122404     0.0223669     0.0639055    0.00305677   -0.00590006   -0.00033988   0.000545097   0.000370159  -0.000100843
     0.331198    -0.0807224     0.0175709     0.0185682     0.0200513     0.0624182    0.00416797   -0.00588514  -0.000821178 -7.72583e-005   0.000118316  -0.000281966
     0.323852    -0.0759916     0.0239204     0.0227973     0.0232469     0.0591477     0.0057643   -0.00830405  -0.000861743   0.000460733   0.000542203   0.000538994
     0.326663     -0.077468     0.0155535     0.0122796     0.0214603     0.0670154    0.00496555   -0.00663637 -7.50414e-005   0.000662383   0.000209346   0.000611264
     0.322497    -0.0784376     0.0195547    0.00972884      0.018284     0.0704019    0.00374803   -0.00667963  -3.9152e-005  -0.000347203   0.000503098   0.000422988
     0.322733    -0.0683302      0.039697     0.0285016    0.00975953     0.0681525    0.00773829   -0.00768476   0.000446836   0.000247856   0.000188712  -0.000132875
      0.32387    -0.0650219     0.0374531     0.0286981    0.00948587     0.0708259    0.00791359    -0.0077548 -6.71276e-005   0.000396412  1.32056e-006   0.000196668
     0.325352    -0.0695021     0.0328618     0.0265769     0.0102419     0.0687823    0.00731228    -0.0100857   0.000222838 -2.00827e-005  -0.000582062  8.72139e-005
     0.326347    -0.0637021     0.0410546     0.0352088    0.00676186     0.0682495    0.00973797   -0.00990335   -0.00029106   0.000127923   -0.00076817   0.000412718
     0.321175    -0.0608487     0.0431223     0.0365837    0.00587806     0.0722943     0.0110501   -0.00929654   0.000227621  -0.000259085    -0.0002245   0.000401207
     0.316452    -0.0636146     0.0403726      0.033463    0.00594889     0.0780682     0.0124115    -0.0096316  -0.000272058  -0.000373885  -0.000627634   0.000317483
     0.305266    -0.0594875     0.0456104      0.028271     0.0081758     0.0794542     0.0109971   -0.00955807   0.000190742   0.000754761  -0.000521006   0.000593278
     0.305829    -0.0525536     0.0529911     0.0360278    0.00484811     0.0776882     0.0127261   -0.00910523  -0.000272081  -0.000137027  -0.000985665  2.90939e-006
     0.298651    -0.0511913     0.0583579     0.0446574    0.00518145     0.0824602     0.0151108   -0.00998655   0.000204807    0.00025043  -0.000375655   0.000494743
     0.301152     -0.054575     0.0633981     0.0515073   -0.00348665     0.0834976     0.0137222   -0.00974774  -0.000877994   0.000703902   0.000186664   0.000216379
     0.314037    -0.0636561     0.0634601     0.0597973     -0.010646     0.0831094     0.0111411   -0.00775728   0.000207332   0.000240868  -0.000360796   0.000491239
     0.303929     -0.060213     0.0653148      0.066852   -0.00788014     0.0854913     0.0123861   -0.00850425 -8.03636e-005   0.000395679  8.56838e-006   0.000188744
     0.301619    -0.0564044     0.0786336     0.0728103    -0.0157324     0.0879533     0.0126214   -0.00809947   0.000203029   0.000240708  -0.000358564   0.000489995
     0.288249    -0.0415523     0.0800237     0.0679901     -0.017655     0.0972622     0.0120831   -0.00760724 -5.87711e-005  -0.000111474   0.000156935   0.000100241
     0.287497    -0.0409255       0.06577     0.0768577    -0.0160896     0.0991307     0.0145318   -0.00843252   0.000218084 -2.69173e-005  -0.000575444  8.52894e-005
     0.299635    -0.0520633     0.0619933     0.0929428    -0.0214393     0.0951297     0.0155672   -0.00879824  -0.000584768   0.000273242   -0.00038563   0.000103849
     0.277033    -0.0428355     0.0554151     0.0795742     -0.012383      0.100828     0.0140072   -0.00871739   0.000219377  -0.000266056   -0.00021777   0.000403777
     0.268883    -0.0410215     0.0594443     0.0745712      -0.01237      0.104702     0.0153055   -0.00870325   0.000429287   0.000485254  -0.000168221  -0.000448562
      0.26942    -0.0209799     0.0608111     0.0949917    -0.0217817      0.103375     0.0181283   -0.00936361  -0.000567752  5.78306e-006  -0.000603125  -0.000297387
     0.264668    -0.0194309      0.036231     0.0963724     -0.012924      0.100886     0.0204097    -0.0108068 -3.89957e-005  -0.000646607  -0.000276562  -0.000718642
     0.268311    -0.0254699     0.0384618      0.111928    -0.0202582      0.100139     0.0221095   -0.00948458  -0.000283013  -0.000389215  -0.000617241   0.000317333
     0.259383    -0.0118051     0.0415238       0.11959    -0.0233311     0.0981825     0.0217349     -0.010286   0.000209644 -3.55516e-005  -0.000572802  8.74324e-005
     0.236929   0.000365912     0.0377233      0.110015    -0.0174036     0.0967198     0.0227104    -0.0102069  -0.000352286   0.000272925   0.000163609  -0.000511938
     0.227197    0.00715412       0.04615      0.110929    -0.0211493     0.0993787     0.0221122    -0.0105904  -0.000568553  1.25321e-006   -0.00060501   -0.00029035
      0.21715     0.0081399     0.0313102      0.106829    -0.0122889       0.10002     0.0227691    -0.0123477  -0.000872734    0.00042537 -2.70837e-005  -0.000178824
     0.201454    0.00752009     0.0279498      0.105956   -0.00761155     0.0961086     0.0249164    -0.0109021  -0.000581189   0.000270479  -0.000402663   0.000122682
     0.190033     0.0060302     0.0237404       0.10043   -0.00582349     0.0908685     0.0248374    -0.0119425  -0.000866597   0.000426331 -3.24449e-005  -0.000179388
     0.166385     0.0140408    0.00102876      0.104569    0.00621826      0.084722     0.0274237    -0.0125127  -0.000843779  -0.000318494   0.000465419  4.61697e-005
     0.132331     0.0158314    -0.0048787     0.0936122     0.0186428     0.0811025      0.028559    -0.0108022  -0.000336571  3.79572e-005   0.000497025  -0.000183761
     0.111882     0.0203544     0.0026775      0.088646     0.0180236     0.0782962      0.028149    -0.0116933   0.000175681  -0.000108546   0.000683962  -0.000510085
     0.104328     0.0154638  9.76401e-005     0.0933249     0.0225019     0.0758853     0.0285905    -0.0108868  -0.000547222  -0.000471635  8.41682e-005   0.000352456
    0.0839683      0.010438    -0.0124493     0.0900996     0.0305642     0.0738457     0.0299246    -0.0105751   0.000232365 -2.97845e-005  -0.000611055   0.000105248
    0.0703359    0.00367472    -0.0104546     0.0966586     0.0344226     0.0588452     0.0319662    -0.0088394   -4.293e-005   0.000120242  -0.000239821  -0.000202975
    0.0563935     -0.010096     -0.012165     0.0975306     0.0405163     0.0464087     0.0330571   -0.00872635 -5.98041e-005   0.000626169  -0.000387309  -0.000114168
    0.0307083   -0.00657559    -0.0124073      0.091594     0.0469639     0.0449725      0.034289    -0.0069141 -1.26567e-005  -0.000384948  -0.000100951  -0.000301151
    0.0208139    -0.0101128    -0.0198341     0.0898326     0.0523221     0.0381971     0.0344613   -0.00754559 -2.89015e-005  -0.000117423   0.000110034   0.000109683
    0.0175722    -0.0287845     -0.034789     0.0882806     0.0557285     0.0341066      0.034043   -0.00761076 -4.79988e-005   0.000388297 -3.68172e-005   0.000200593
    0.0150244    -0.0502065    -0.0463046     0.0943732     0.0643726     0.0186106     0.0351543    -0.0062775   0.000486542 -2.99195e-005 -6.36825e-005  -0.000546846
  -0.00182323    -0.0575305    -0.0539967     0.0915574     0.0734666    0.00355014     0.0357803   -0.00493306 -1.54296e-005  -0.000122063   0.000105719   9.5752e-005
    -0.018134     -0.062372    -0.0512097     0.0828271     0.0789563   -0.00188687     0.0359507   -0.00463943   0.000499243 -3.01295e-005 -6.98043e-005  -0.000549687
   -0.0162471    -0.0675012    -0.0537619     0.0825637     0.0800573    -0.0102435     0.0341743   -0.00605635   0.000210383   0.000124072   0.000304824  -0.000853088
   -0.0227424     -0.073721    -0.0576369     0.0788809     0.0856039    -0.0122413     0.0338048   -0.00490925   0.000499366 -3.04786e-005 -6.88882e-005  -0.000550782
   -0.0230923    -0.0937149     -0.063739     0.0682031     0.0934633    -0.0123514     0.0345898   -0.00646417  -0.000270309  -0.000491309  4.23203e-005   -0.00103617
   -0.0338185     -0.098051    -0.0499951     0.0632096      0.093295      -0.01918     0.0339073   -0.00622804   -0.00081324   0.000192262   0.000282385   0.000111951
   -0.0348599     -0.110597    -0.0435122     0.0644517     0.0946448    -0.0292699      0.032911   -0.00546081   -0.00029983   0.000280599   0.000113431  -0.000537725
   -0.0277995     -0.119343    -0.0453823     0.0637463      0.092808    -0.0262495     0.0330798   -0.00670308 -3.84917e-005   0.000397353 -4.50354e-005   0.000172968
   -0.0475983       -0.1145    -0.0390765     0.0585358     0.0944175    -0.0200087     0.0332287   -0.00639464   0.000495656  -0.000254449   0.000284285  -0.000246734
   -0.0726318     -0.119505    -0.0295404     0.0454034     0.0970589    -0.0238819     0.0313127   -0.00834259 -5.28197e-006   -0.00060434   0.000242782 -1.24304e-005
   -0.0875997     -0.121307    0.00155937     0.0470146     0.0909095    -0.0295887     0.0291384    -0.0081142  -0.000803296  -0.000301855   0.000434399   1.0359e-005
   -0.0948119     -0.141306   -0.00371944     0.0404416     0.0972864    -0.0299119     0.0288669   -0.00667796 -3.57135e-006  -0.000364509   -0.00011284  -0.000335724
   -0.0997685     -0.156115    -0.0137279     0.0301258      0.101611    -0.0260696     0.0280772   -0.00814281  -2.7872e-005   0.000146735  -0.000262959  -0.000242092
    -0.120296     -0.158885  -0.000885228     0.0218646     0.0987226    -0.0239798     0.0265361   -0.00605036 -1.61148e-005 -9.26431e-005  9.65363e-005  7.55937e-005
    -0.134882     -0.152966     0.0153482     0.0236609     0.0939377    -0.0246123     0.0252612   -0.00570041   0.000483109  2.39769e-005   0.000500184   0.000159997
    -0.132548     -0.148524     0.0305058     0.0370785     0.0865275    -0.0264524     0.0248952   -0.00550579  1.66876e-005  -0.000869368  4.12423e-005  -0.000430978
    -0.145469     -0.145936     0.0214842     0.0223938     0.0930072    -0.0281778     0.0243862   -0.00501963 -1.06886e-005 -9.65323e-005   0.000102559  7.95011e-005
    -0.153008     -0.148722     0.0258318     0.0164345     0.0894164    -0.0206091     0.0227365   -0.00412432  7.61216e-006  -0.000363094  -0.000109554  -0.000329721
    -0.157001     -0.157255     0.0296102     0.0197682     0.0895685    -0.0266437      0.022727   -0.00295384   0.000207738   0.000411655   0.000516844  -0.000458386
     -0.18054     -0.166382     0.0334202    0.00810531      0.099485    -0.0343984     0.0237127   -0.00409854   0.000489962   0.000264885    0.00013919  -0.000158586
    -0.182301     -0.200361     0.0387419    0.00755404     0.0976357    -0.0336117      0.022354   -0.00339512   0.000294265  -0.000747177  -0.000124368   0.000272716
    -0.177766     -0.196323     0.0389271     0.0147902      0.094324    -0.0360797     0.0224167    -0.0036253 -9.30568e-006 -9.08084e-005   0.000104196  6.46426e-005
    -0.186941     -0.186818       0.04343    0.00557461     0.0935258    -0.0305967     0.0223728   -0.00415427  -6.5397e-006  -0.000326159   0.000460265   0.000385523
    -0.186064     -0.189387     0.0379497    0.00225227     0.0937732    -0.0316036      0.020615   -0.00309783 -4.52694e-006 -9.07367e-005   0.000102844  7.08646e-005
    -0.182625      -0.18864     0.0319833    0.00504765     0.0937308    -0.0353154     0.0217849   -0.00447952 -4.61462e-005     0.0009207  -0.000189302   0.000258858
     -0.17926     -0.195419     0.0277219    0.00483859     0.0937425    -0.0359714     0.0217752     -0.006194 -1.70572e-005 -8.60148e-005   0.000103033   6.7406e-005
     -0.18335      -0.19387     0.0320531   -0.00515715     0.0931973    -0.0316815     0.0202899   -0.00612146  2.59894e-006  -0.000589181   0.000248159 -2.42367e-005
    -0.182132     -0.195413     0.0283348    -0.0112647     0.0951536    -0.0338788     0.0196007   -0.00561683   0.000274238  -0.000476569  8.88006e-005   0.000690448
    -0.176558     -0.200514     0.0226907   -0.00312228     0.0917573    -0.0308558     0.0202737   -0.00555946 -3.00854e-005   0.000180933   0.000315571    0.00048021
    -0.174498     -0.206349     0.0336423    0.00147979      0.088305     -0.034284     0.0196234   -0.00509603 -3.29731e-005    0.00041813 -3.90209e-005   0.000159964
     -0.16954     -0.213185     0.0378386    0.00794735       0.08712     -0.038808     0.0186472   -0.00398365  -0.000788383  -0.000531402    0.00080041   0.000309775
    -0.171203     -0.228157      0.033264   -0.00145019     0.0875388    -0.0342271     0.0159141   -0.00292085   0.000489213  2.80164e-005   0.000510624   0.000145453
    -0.173225     -0.228213     0.0300357   -0.00814118     0.0876318     -0.031839     0.0154327   -0.00282483   0.000276186  -0.000242812  -0.000261473   0.000366737
    -0.180256     -0.222056     0.0350334    -0.0117532     0.0901143    -0.0298296     0.0155634   -0.00254947    0.00047739   0.000296465   0.000719431   0.000560872
    -0.178504     -0.229827     0.0356222    -0.0100739     0.0887569    -0.0322956      0.014097   -0.00118077 -1.65211e-005   0.000175118   0.000323143   0.000476254
    -0.175805     -0.230122     0.0400852   -0.00405103     0.0846444    -0.0327754     0.0132743   -0.00171807   0.000263143  2.04437e-005 -4.37055e-005   0.000777811
    -0.176433     -0.235075     0.0406815   -0.00882165      0.085598     -0.032043     0.0117187   -0.00102493 -2.05993e-005   0.000412109 -3.10533e-005   0.000159378
    -0.175902     -0.233449     0.0361225   -0.00911068     0.0844778    -0.0311023     0.0127851  -0.000751674  2.27827e-006   -0.00033161   0.000472617   0.000381365
    -0.173393     -0.234605     0.0409829   -0.00550384     0.0837098    -0.0292278      0.013465  -0.000337051   0.000479547    0.00052973   0.000367211   0.000240735
    -0.161073     -0.244907     0.0462548  -0.000983043     0.0778015    -0.0320516     0.0126158   0.000399778  7.60237e-008 -9.53466e-005   0.000119191  5.81993e-005
    -0.157656     -0.245138     0.0465437   -0.00522531     0.0787319    -0.0321727     0.0149579    0.00102396   0.000517693  -0.000242278   0.000301847  -0.000272021
    -0.153492     -0.243559     0.0456008  -0.000464007     0.0771432    -0.0327451      0.013807    0.00101972  2.12756e-005   -0.00060116   0.000264417 -3.75885e-005
    -0.147479     -0.237521     0.0423471    0.00458749     0.0757182     -0.036882     0.0158285   0.000142835  3.11945e-006  -0.000334458   0.000477308   0.000372405
    -0.138833     -0.239074     0.0334127    0.00821499     0.0751072    -0.0403894     0.0193839   -0.00165471 -6.19689e-006 -9.25444e-005   0.000116046  5.14239e-005
    -0.133393     -0.235263     0.0355658     0.0116612     0.0715626    -0.0405963     0.0183408   -0.00141897  -0.000305144    0.00032529   0.000703593   0.000161282
    -0.134068     -0.230701     0.0359561    0.00702638     0.0726642    -0.0391669     0.0186769   -0.00173957    0.00027777  -0.000247309  -0.000253574   0.000356803
    -0.131927     -0.237694     0.0296673   0.000358615     0.0735177    -0.0349988     0.0182112   -0.00269134   0.000276561  -0.000481856   0.000103112    0.00067324
    -0.125854     -0.238077     0.0321802   -0.00065903     0.0711549    -0.0339815     0.0169107   -0.00352097 -1.39091e-005 -8.88436e-005   0.000117868  5.46791e-005
    -0.126145     -0.226071     0.0410766    0.00961865      0.067865    -0.0383556     0.0185358   -0.00246154 -2.78241e-005   0.000411669 -2.55903e-005   0.000148971
    -0.126764     -0.217707     0.0478044    0.00988961     0.0634361    -0.0370616     0.0160683   -0.00219039 -5.74881e-006   -0.00033471   0.000484058   0.000375029
    -0.121397     -0.230219     0.0431287    0.00115685     0.0660425    -0.0345396     0.0146858   -0.00234237   0.000488525  2.46528e-005   0.000522948   0.000140448
    -0.118669     -0.235407     0.0432908   -0.00213336     0.0677446    -0.0328717     0.0137938   -0.00159107  -0.000290795  6.02136e-005    0.00049395  -0.000245289
    -0.108703     -0.243702     0.0452332   -0.00346274     0.0658377    -0.0336756     0.0112043  -0.000908416  -0.000268571  -0.000684971    0.00100283 -2.42936e-005
    -0.107481     -0.246275     0.0472249   -0.00659224     0.0672028    -0.0303218    0.00997233  -0.000506372   0.000492993  2.30241e-005   0.000525867   0.000140334
    -0.105524     -0.246983     0.0504546    -0.0060393     0.0662837    -0.0301538     0.0102131   -0.00161579  -0.000309376   0.000327881   0.000710641   0.000164739
   -0.0993833     -0.260486      0.044432    -0.0106125     0.0722022    -0.0314753     0.0100304   -0.00116878  -0.000238892 -9.60005e-005  -0.000434187   0.000683663
   -0.0951339     -0.264099     0.0533738     -0.010755      0.069974    -0.0308597     0.0100871  -0.000415848   -0.00023704 -9.58321e-005  -0.000433251   0.000681171
     -0.08308     -0.269203     0.0567883   -0.00245087     0.0620976    -0.0320662    0.00854938 -6.24599e-005 -1.13646e-005   0.000143973  -0.000226635  -0.000268511
   -0.0816422     -0.268046     0.0482449   -0.00730283     0.0639352    -0.0294078     0.0070943   0.000352766  -0.000292451   0.000296366   0.000143737  -0.000567242
   -0.0808326     -0.262413     0.0478838    -0.0104517     0.0653199    -0.0284169    0.00708287   0.000574878  -3.9102e-006 -9.58926e-005   0.000129905  5.41298e-005
   -0.0771222      -0.25982     0.0436442    -0.0145924     0.0667235    -0.0255581     0.0080471  -0.000443415 -4.24091e-006  -0.000331025   0.000485494   0.000371544
   -0.0698697     -0.260265     0.0459844    -0.0107239     0.0657017    -0.0284491    0.00878315  -0.000891553   0.000274257  -0.000246172  -0.000243281    0.00035512
   -0.0619858     -0.258445     0.0555971   -0.00306191     0.0599777    -0.0288386     0.0092901   -0.00133032  -0.000529685   0.000294242  -0.000413763  6.15341e-005
   -0.0587838     -0.264409     0.0500592  -0.000124329     0.0640788    -0.0373255     0.0111849   -0.00128395 -1.49139e-005   0.000145536  -0.000228739  -0.000270918
   -0.0445318     -0.266272     0.0400025  -0.000920067     0.0650863    -0.0415141    0.00985611   -0.00072324  -0.000504627  -0.000452445  9.12478e-005   0.000279987
   -0.0359526     -0.260057      0.047168   -0.00104512     0.0551123    -0.0280206    0.00888744   -0.00281181  -0.000524046   0.000266489  -0.000982069  -0.000667233
   -0.0405381     -0.276001     0.0450481    -0.0035519     0.0605386    -0.0291147     0.0111972   -0.00266305 -2.31071e-005   0.000150625  -0.000229372  -0.000274057
   -0.0328626     -0.303358     0.0474318   -0.00237823     0.0618479    -0.0337568     0.0101837   -0.00235175  -7.1457e-006  -0.000352538 -8.12384e-005  -0.000377737
   -0.0238389     -0.312672     0.0692319    0.00702782     0.0514039    -0.0318218    0.00945214   -0.00236443   0.000766454  -0.000149439  -0.000404158  -0.000315453
   -0.0195316     -0.277568     0.0700025     0.0153897     0.0490744    -0.0349001    0.00962533   -0.00300282 -4.57382e-005   0.000413668 -3.72385e-006    0.00013076
  -0.00179385      -0.22847     0.0543946     0.0262505      0.049461    -0.0364117     0.0109214   -0.00321418  -0.000804698 -6.56281e-005   0.000114854  -0.000335031
  -0.00176727     -0.222726      0.050516      0.022132      0.056243    -0.0373479      0.011154   -0.00266703  -0.000746838  -0.000224966  -0.000818191   0.000600979
 -0.000944617     -0.246915     0.0558521     0.0148667     0.0572454     -0.035327    0.00990998  -0.000778754  -0.000527294  4.85449e-005 -4.84334e-005    0.00037556
   0.00244124     -0.249541     0.0639354     0.0168083     0.0521206    -0.0306359    0.00944129  -0.000989787  -3.7873e-005   0.000644314  -0.000364103  -0.000175944
 -0.000105229     -0.250917     0.0684596     0.0197521     0.0531295    -0.0357199    0.00894194  -0.000696339 -3.41002e-005   0.000404513 -3.42369e-006   0.000139404
   0.00858576     -0.256777     0.0608231     0.0125907     0.0553455     -0.031193      0.008257  -0.000229648  -0.000545964   0.000554268  -0.000192792   0.000468271
   0.00381892     -0.250658     0.0687193     0.0152504      0.053801    -0.0297375    0.00796155   -0.00180496  -0.000836503   0.000710135   0.000179842   0.000166916
   0.00889109     -0.248724     0.0875056     0.0303755     0.0466953    -0.0320605    0.00778961  -0.000198031 -2.08126e-005   0.000135486  -0.000209994  -0.000273532
   0.00123046     -0.246758     0.0909729     0.0146706     0.0494867    -0.0311805    0.00735838 -3.46612e-005  -0.000546171   0.000554404  -0.000188253   0.000468437
  -0.00825032     -0.247334     0.0906962    0.00889437     0.0559413    -0.0335011    0.00947515   0.000691153  -0.000525278   0.000289627  -0.000407253  5.62672e-005
   0.00521386     -0.240613     0.0985913     0.0196087     0.0471269    -0.0286447    0.00913637    0.00253282  -0.000786188 -6.77843e-005   0.000115651  -0.000340647
    0.0146759     -0.245449     0.0900214      0.024125     0.0487229    -0.0370186     0.0102959   0.000192166  2.05776e-006  -0.000367663 -6.79917e-005   -0.00037015
    0.0150593     -0.244846     0.0786101     0.0155073     0.0531202    -0.0320341     0.0109213    0.00026385  -0.000509559  -0.000216932  -0.000260486 -3.93334e-005
    0.0130232     -0.235879     0.0854023    0.00838413     0.0518993    -0.0287758    0.00968423  -0.000207685   -0.00102657    0.00017151  -0.000806034 -2.35163e-005
   0.00767309     -0.231946      0.095843     0.0179332      0.049413    -0.0343738     0.0125437   -0.00194871 -1.93319e-005 -9.47161e-005   0.000139997  4.33536e-005
   0.00785377     -0.220352      0.101219     0.0186826     0.0472084    -0.0273795     0.0133286  -0.000760837 -1.72744e-005   0.000141792  -0.000220084  -0.000270004
    0.0174199     -0.227167      0.100633     0.0247461     0.0462992    -0.0334471     0.0138197   -0.00141414  -0.000302005  5.72317e-005     0.0005124  -0.000260536
   0.00770307     -0.210846      0.126823     0.0431865     0.0354206    -0.0399243     0.0160224   0.000341918  -0.000797071   0.000170682  -0.000238381   -0.00066275
   0.00551605     -0.202221       0.12285     0.0388882     0.0367035    -0.0353441     0.0153889   0.000930896  -0.000522449   4.4004e-005 -3.98488e-005   0.000372601
    0.0128186     -0.215236     0.0996849     0.0279368     0.0448752    -0.0294549     0.0171844  -0.000386801  -0.000529483   0.000289213  -0.000408123  5.47248e-005
  0.000684879     -0.215599      0.110712     0.0231696     0.0495123    -0.0300796     0.0162582   0.000592419  -0.000790262 -6.17241e-005   0.000107334   -0.00034154
   0.00175332     -0.220595      0.115765     0.0157663     0.0504901    -0.0364685     0.0147036    0.00241137 -1.80141e-005    0.00040535 -9.17537e-006   0.000138019
   0.00559417     -0.216581      0.123739     0.0219522     0.0438926    -0.0354362     0.0122369    0.00183103 -6.95549e-006   0.000136251  -0.000214707  -0.000271579
  -0.00158998      -0.21886      0.126179     0.0244122     0.0468908    -0.0331148      0.012443    0.00192132   -0.00078676  -6.5674e-005   0.000114191  -0.000341109
   0.00232455     -0.224615      0.132677     0.0302272     0.0466001    -0.0340235      0.013842    0.00209534  -0.000522781   0.000286498  -0.000403004   5.1203e-005
   0.00550814     -0.224813      0.135826     0.0364931     0.0422574    -0.0378256     0.0138672    0.00229486  -0.000504532  -0.000220922  -0.000252885  -4.5416e-005
  -0.00509138     -0.222185      0.134312     0.0288147      0.046152     -0.034963     0.0129138     0.0035626  -0.000799703    0.00043692 -3.08263e-005  -0.000249226
   -0.0148948     -0.219856      0.135974     0.0273186     0.0477839    -0.0311561     0.0139967    0.00386778   2.0455e-006  -0.000102564    0.00014027  4.24425e-005
   -0.0215163     -0.216877      0.139262     0.0164866     0.0494996    -0.0264131     0.0116565    0.00252844   -0.00050039  -0.000216709  -0.000260301 -3.59629e-005
   -0.0263201     -0.219664      0.135341    0.00766493      0.050848    -0.0220097     0.0107079    0.00318056   0.000496669   0.000258551   0.000177433  -0.000184085
   -0.0254733     -0.225929      0.127654     0.0103127     0.0550717    -0.0301745      0.012597    0.00213438  -0.000783802 -6.03206e-005   0.000106536  -0.000340285
   -0.0309757     -0.216456      0.140565     0.0112897     0.0509916    -0.0296271     0.0131971    0.00191665  -0.000784249 -5.97945e-005   0.000107839  -0.000339509
   -0.0280567     -0.210413      0.134192     0.0171323     0.0475802    -0.0265543     0.0143538    0.00150162  -0.000484351  -0.000719763  -0.000116672  -0.000130633
   -0.0215631     -0.218344      0.128921     0.0171306     0.0554056     -0.033687     0.0149713  -0.000252367  -2.6792e-005   0.000173863   0.000346967   0.000454782
   -0.0134479      -0.22125      0.126757     0.0220454     0.0527917    -0.0315024     0.0152044   -0.00173423 -2.46974e-005   0.000385625  -0.000581709  -0.000591304
    -0.012039     -0.221225      0.127739     0.0237093     0.0521257    -0.0330948     0.0169635    -0.0031216 -1.17847e-005  -0.000116215  -0.000436662  -0.000688501
   -0.0186768     -0.216423      0.126375     0.0248472     0.0587916    -0.0364337     0.0186586  -0.000826153 -6.81824e-007  -0.000119897   -0.00044095    -0.0006878
-1.17916e-005     -0.222467      0.114246     0.0358983     0.0487886    -0.0343557      0.016379    -0.0015731  -0.000518501  -0.000213736  -0.000259861  -4.3797e-005
    -0.003159     -0.230642      0.120799     0.0289349     0.0471469    -0.0326237     0.0140112   -0.00202066  -0.000804802  -5.7437e-005   0.000113176  -0.000346606
    -0.021926     -0.215919      0.127534     0.0218122     0.0499738    -0.0310338     0.0148659   0.000604543 -1.15264e-005   0.000142115  -0.000221755  -0.000272163
    -0.021678     -0.215566      0.129753      0.031477     0.0492317    -0.0341565     0.0165403   -0.00215102  -0.000803021 -5.68762e-005   0.000109944  -0.000344714
   -0.0223952     -0.227011      0.119391     0.0240864      0.052717    -0.0332169      0.013822   -0.00129157 -3.89406e-005   0.000649738  -0.000366832   -0.00017958
   -0.0191506     -0.233817      0.115358     0.0236064     0.0528477    -0.0298276     0.0139284    0.00111908  -0.000313916   0.000800365  3.12176e-006  -0.000483136
   -0.0212794     -0.238108      0.119741     0.0334063     0.0523307    -0.0339542     0.0149925   -0.00011452  -0.000333625   0.000830038   0.000576627   0.000240113
    -0.029585     -0.232039      0.135247     0.0360437     0.0487946    -0.0383507     0.0133148  -0.000284316   -0.00030324   0.000294968   0.000156427  -0.000581239
   -0.0378471     -0.239846      0.128823     0.0305226     0.0523098    -0.0373959     0.0135947    0.00208967  -0.000520184   4.9684e-005 -4.63505e-005   0.000365555
   -0.0484856     -0.247651      0.115386     0.0183614      0.058482    -0.0302961     0.0119676    0.00195495  -0.000538118   0.000557665  -0.000197585   0.000463917
   -0.0528066     -0.237308      0.126227     0.0197786     0.0545693    -0.0269545     0.0122365    0.00222214  -0.000786748 -6.10233e-005   0.000108006   -0.00034239
   -0.0528089     -0.232437      0.119318     0.0173952      0.054746    -0.0274614     0.0127297    0.00186021  -0.000523923   0.000528606  -0.000769202  -0.000259769
   -0.0462551     -0.232794      0.118692     0.0260156     0.0551876    -0.0339654     0.0133177    0.00138035  -0.000521023  5.03824e-005 -4.92239e-005    0.00037071
   -0.0387549     -0.232092      0.120509     0.0385828     0.0489775     -0.034288     0.0147563    0.00202216  -0.000486922  -0.000724867  -0.000112135  -0.000138374
   -0.0418172     -0.226052      0.131487     0.0412187      0.044098    -0.0325013     0.0159948     0.0020387  -0.000523934   0.000285816  -0.000403333  5.00918e-005
   -0.0405957     -0.220036      0.126408     0.0426457     0.0422056    -0.0338599     0.0169546   0.000348398  -0.000511251  -0.000217678  -0.000257002 -4.37263e-005
   -0.0368611     -0.228437      0.118906     0.0475033     0.0397085    -0.0328268     0.0185874   -0.00196368  -0.000506737  -0.000480029  -0.000469755  -0.000459297
   -0.0388445     -0.231099      0.122689     0.0427009     0.0411121    -0.0362619     0.0184448   -0.00123946   -0.00051828  -0.000213148   -0.00025776  -4.9044e-005
   -0.0390503     -0.225481      0.122212     0.0429129     0.0387283    -0.0331705     0.0172572    -0.0008086  -0.000498261  -0.000720522  -0.000109877  -0.000140364
   -0.0463918     -0.211168      0.139779     0.0594172      0.031865    -0.0386874     0.0187211   -0.00186944 -8.31091e-006   -0.00036628 -6.30892e-005  -0.000375284
   -0.0469573     -0.203232      0.130935     0.0611519     0.0332114    -0.0381374     0.0198582  -0.000548915   0.000282183  -0.000523806  -0.000436258  -7.0012e-005
   -0.0494465     -0.212866      0.119192     0.0540682     0.0359454    -0.0344006     0.0194952   -0.00244101  -0.000522715  -0.000215946  -0.000255003 -4.45357e-005
   -0.0605795     -0.208952      0.125061     0.0443156      0.035633    -0.0351481     0.0194158  -0.000642726  -0.000494349  -0.000722039  -0.000110793  -0.000137053
   -0.0621399     -0.210588      0.123343     0.0486591     0.0346075    -0.0324172     0.0200283   0.000281154   0.000268787 -1.61608e-005  -0.000587437  2.58499e-005
   -0.0704874     -0.210531      0.136388     0.0506142     0.0338541    -0.0336252     0.0198539   0.000794018  -0.000222537   -0.00061102  -0.000268032   0.000574554
    -0.077274     -0.208424      0.143948       0.04936     0.0316379    -0.0335753     0.0201289   0.000382366  -0.000525888   4.9384e-005 -4.25283e-005   0.000366406
   -0.0750518     -0.219573      0.143502     0.0548653     0.0300212    -0.0339902     0.0185884    0.00143019   0.000481806   0.000492363  -0.000170118  -0.000514297
   -0.0857739     -0.214064      0.150101      0.049332     0.0307563    -0.0306738     0.0153555   0.000705943  -0.000527112  4.70734e-005 -3.69937e-005   0.000369365
    -0.087828     -0.209916      0.145178     0.0518657     0.0275732     -0.027588     0.0167118   0.000735055 -3.14465e-005    0.00040283   3.1397e-006    0.00013656
   -0.0966324     -0.213128      0.146227     0.0477237     0.0302966    -0.0314069     0.0163262    0.00111177    0.00027331  -0.000255714  -0.000222867   0.000344158
    -0.107907     -0.210293      0.146172     0.0385577       0.03516    -0.0308362     0.0155939    0.00225896  -0.000202224  -0.000640859  -0.000838566  -0.000146479
    -0.106412     -0.210498      0.149463     0.0447391     0.0316515    -0.0310829     0.0161715    0.00180131  9.03995e-006  -0.000369185  -6.5662e-005  -0.000367913
    -0.114235     -0.210126      0.145697     0.0414617     0.0337208    -0.0287766     0.0173396    0.00302397 -4.67477e-007  -0.000102916   0.000143271  4.40222e-005
    -0.109097     -0.209096      0.145987     0.0457865     0.0300014    -0.0300856     0.0172175    0.00227092  -0.000290678   0.000288701   0.000158714  -0.000575775
    -0.104906     -0.206184      0.148573     0.0541124     0.0254695    -0.0315273     0.0169735   0.000395359  -0.000511562  -0.000220905  -0.000248571 -4.06938e-005
    -0.113808     -0.199228      0.143368     0.0501269     0.0297333    -0.0313266      0.018414    0.00202651 -4.05733e-006  -0.000104856   0.000146052  4.52014e-005
    -0.116338     -0.194175      0.141612     0.0457068     0.0292146    -0.0333467     0.0183228   0.000916316 -4.04044e-005    0.00066858   0.000212525   0.000552962
