0.0188484397	0.0233484245	0.0610363764	0.1193742965	0.3014618968	0.7072217435	1.6413638008	1.600470015	2.5388660199	3.1216845183	3.5788158797
0.0251300954	0.0311300594	0.0813690927	0.1591157038	0.4008058694	0.9293672417	1.9288415278	1.0661539857	0.8484809739	0.4413247225	-0.4878964081
0.0314107591	0.0389106888	0.1016908938	0.1988142705	0.4991767718	1.1402147848	2.0508776145	1.1372095797	0.3995413908	0.3710126435	1.0485023174
0.0376901827	0.0466900612	0.1219990591	0.2384593338	0.5963399376	1.337373068	2.0235591039	1.7616435613	1.1227820006	0.8615854023	1.2997058501
0.0439681183	0.0544679254	0.1422908739	0.2780402622	0.6920663509	1.5187235518	1.8834390626	2.4070387691	2.4146213441	3.0374418185	3.9766219756
0.0502443182	0.0622440302	0.1625636301	0.3175464622	0.7861336942	1.6824596227	1.6795175039	2.6397637492	3.4956129429	4.4237076134	5.2744892762
0.0565185345	0.0700181244	0.1828146276	0.356967384	0.8783273524	1.8271181356	1.4639026588	2.39693339	3.2574729597	3.835870581	4.4764724609
0.0627905195	0.077789957	0.2030411749	0.3962925278	0.9684413668	1.951602675	1.2831154903	1.8823670796	2.0143728082	1.2138057106	0.7519078904
0.0690600257	0.085559277	0.223240591	0.4355114502	1.056279333	2.0551981122	1.1715845063	1.347057756	0.9344975897	1.8370376582	1.2112041232
0.0753268055	0.0933258335	0.2434102058	0.47461377	1.1416552373	2.1375762833	1.1481816439	0.9550868639	0.4389991291	-0.4184066953	0.0676727073
0.0815906116	0.1010893758	0.2635473612	0.513589174	1.2243942275	2.1987928578	1.2158911936	0.7631922371	0.5608692955	-0.3095063198	-0.5312702958
0.0878511966	0.1088496531	0.2836494128	0.5524274235	1.3043333122	2.2392757075	1.3640742709	0.7573265401	1.2690469479	0.4150065836	1.3864158382
0.0941083133	0.1166064149	0.3037137303	0.5911183597	1.3813219863	2.2598053047	1.572409449	0.8949185969	1.8948860701	0.9167850229	-0.0141825849
0.1003617149	0.1243594109	0.3237376989	0.6296519098	1.4552227791	2.2614878815	1.8154852293	1.1324447054	1.4728536799	1.4181415852	1.9725532578
0.1066111543	0.1321083908	0.3437187203	0.6680180925	1.5259117221	2.2457222478	2.0671468171	1.4375981697	0.6475079734	1.6461139391	0.9692785108
0.1128563849	0.1398531045	0.3636542136	0.7062070239	1.5932787348	2.2141613068	2.3039697727	1.7907364437	0.9250491377	0.5133912644	-0.1556294942
0.1190971601	0.1475933021	0.3835416166	0.7442089228	1.6572279281	2.1686694079	2.5075495979	2.1795035886	2.1508848715	1.6036132388	1.9360995175
0.1253332336	0.1553287338	0.4033783863	0.7820141163	1.717677823	2.1112767392	2.6655803016	2.5896859834	3.2797162677	4.274092309	5.0111738898
0.1315643591	0.16305915	0.4231620006	0.8196130452	1.7745614868	2.0441319895	2.7718991779	2.9961595476	3.957855997	3.2610647041	2.2781636199
0.1377902907	0.1707843015	0.4428899588	0.8569962694	1.8278265858	1.9694544977	2.825784648	3.3588612046	4.3588272255	3.9917924581	4.8440167113
0.1440107826	0.178503939	0.4625597826	0.8941544728	1.8774353558	1.8894870627	2.8308192019	3.6276829387	4.6275396454	5.5199685739	6.0073566689
0.1502255891	0.1862178136	0.4821690172	0.9310784685	1.9233644945	1.8064505075	2.7935942276	3.7560070282	4.7417275323	5.7136128542	5.5384892498
0.156434465	0.1939256766	0.5017152323	0.9677592036	1.9656049748	1.7225009891	2.7224653872	3.7171935886	4.5825977106	5.5823046026	6.2846931356
0.1626371652	0.2016272794	0.5211960227	1.0041877643	2.0041617849	1.6396909183	2.6264900315	3.5156123321	4.0519396057	4.5193081729	3.7874098929
0.1688334447	0.2093223739	0.5406090095	1.0403553806	2.0390535968	1.5599342072	2.5146084918	3.1863214366	3.1929932319	2.2231009712	2.5266387904
0.175023059	0.2170107121	0.5599518411	1.0762534304	2.0703123683	1.4849764113	2.395077725	2.783766966	2.2265902367	2.6134695398	3.3260509943
0.1812057636	0.2246920461	0.5792221936	1.1118734448	2.0979828816	1.4163701678	2.2751310801	2.3654881223	1.4368535763	1.8662407106	2.5861395105
0.1873813146	0.2323661286	0.598417772	1.1472071114	2.1221222239	1.3554561715	2.1608200515	1.9782178201	0.9964930354	0.003141498	-0.2964143543
0.1935494681	0.2400327124	0.6175363112	1.1822462795	2.1427992152	1.303349774	2.0569888224	1.6509536244	0.8930026687	1.2307598517	0.4320372123
0.1997099805	0.2476915506	0.6365755762	1.2169829633	2.1600937867	1.2609331401	1.9673357528	1.395299565	0.9949476921	1.9788210855	1.6704319612
0.2058626088	0.2553423967	0.6555333636	1.2514093464	2.1740963177	1.2288527637	1.8945238115	1.2104392764	1.1626164273	1.5281730208	2.16664653
0.2120071099	0.2629850043	0.6744075019	1.2855177854	2.1849069343	1.2075220229	1.8403113631	1.0894692176	1.3108412103	1.0238306738	2.0237694503
0.2181432414	0.2706191275	0.6931958526	1.3193008132	2.1926347767	1.1971283534	1.8056837952	1.0247822952	1.4108444666	0.8081426424	1.6271685217
0.2242707609	0.2782445208	0.7118963104	1.3527511429	2.1973972398	1.1976445389	1.7909742023	1.011525776	1.4643290983	0.8050996589	1.4013348619
0.2303894267	0.2858609388	0.7305068045	1.385861671	2.1993191946	1.208843553	1.7959673604	1.0490662777	1.4794710464	0.9883983041	1.5093381968
0.236498997	0.2934681365	0.7490252991	1.4186254805	2.1985321926	1.2303163496	1.819985547	1.14071976	1.4598866088	1.4506601125	2.0680798308
0.2425992308	0.3010658696	0.7674497938	1.4510358438	2.1951736629	1.2614919738	1.8619576325	1.2919859222	1.4067224764	2.139732985	2.9726970581
0.2486898872	0.3086538936	0.7857783248	1.4830862258	2.1893861032	1.3016593666	1.920474575	1.5074996304	1.330836801	2.2367494587	3.2281761049
0.2547707257	0.316231965	0.8040089647	1.5147702863	2.1813162735	1.3499902477	1.9938352786	1.7871076094	1.2692040295	0.8758159665	1.8474485471
0.2608415063	0.3237998401	0.8221398241	1.5460818829	2.1711143941	1.4055624924	2.0800869632	2.1219206602	1.2938503444	0.5131367341	1.5090100276
0.2669019893	0.3313572759	0.8401690513	1.577015073	2.1589333559	1.4673834577	2.1770639079	2.4916686774	1.4977405775	2.4054561513	2.8298881588
0.2729519355	0.33890403	0.8580948334	1.6075641164	2.1449279445	1.5344127678	2.2824278058	2.8648230787	1.9503387663	1.9017941881	1.1411284804
0.278991106	0.3464398599	0.8759153965	1.6377234768	2.1292540844	1.6055841244	2.3937120931	3.202414775	2.639581016	1.6950135536	1.5658525712
0.2850192625	0.353964524	0.8936290065	1.6674878242	2.1120681057	1.6798257745	2.5083715842	3.4652418355	3.4407315967	3.6484815611	4.6234899938
0.2910361668	0.3614777809	0.9112339694	1.6968520363	2.0935260378	1.7560793356	2.6238376324	3.6226677721	4.1477549518	5.0274006736	4.7836691881
0.2970415816	0.3689793897	0.9287286317	1.7258112004	2.0737829327	1.8333167423	2.7375779356	3.6602109432	4.560972176	5.5194467707	6.308029512
0.3030352696	0.3764691099	0.9461113809	1.7543606144	2.0529922209	1.9105551499	2.8471591174	3.5832519543	4.5783920909	5.3351439138	6.0552681362
0.3090169944	0.3839467016	0.9633806461	1.782495788	2.0313051024	1.9868696891	2.9503094256	3.4155128122	4.2326437086	4.1684524197	4.4285478396
0.3149865197	0.3914119253	0.980534898	1.8102124441	2.0088699744	2.0614040274	3.0449783826	3.1928934702	3.6573947398	2.6969369373	2.7437000136
0.3209436098	0.3988645419	0.9975726497	1.8375065197	1.9858318982	2.1333787454	3.1293900497	2.9548620469	3.0158372191	2.4984644896	1.8135162848
0.3268880297	0.4063043128	1.0144924565	1.8643741661	1.9623321065	2.2020975833	3.2020867571	2.7361781842	2.4382987063	3.0506120205	3.9317063074
0.3328195445	0.4137310001	1.0312929167	1.8908117501	1.9385075514	2.266951653	3.2619606662	2.5611705525	1.9950103662	2.9937239314	2.4321320933
0.3387379202	0.4211443662	1.0479726715	1.916815854	1.9144904951	2.3274217458	3.3082713306	2.4415356311	1.7013183998	2.46051337	1.7550105123
0.3446429232	0.428544174	1.0645304058	1.942383276	1.8904081417	2.3830788885	3.3406483997	2.3773375161	1.5384268129	2.0257186053	2.2187170026
0.3505343202	0.4359301872	1.0809648477	1.9675110301	1.866382313	2.433583326	3.3590796645	2.3600673729	1.4746296235	1.876904178	2.4224164489
0.3564118787	0.4433021697	1.0972747692	1.9921963465	1.8425291654	2.4786821154	3.3638856539	2.3764197514	1.4800705973	1.9629483455	2.4808142383
0.3622753667	0.4506598862	1.1134589862	2.0164366708	1.8189589485	2.5182055274	3.3556828631	2.4117174457	1.5343004718	2.1770449031	2.3942742437
0.3681245527	0.4580031019	1.1295163589	2.040229664	1.7957758055	2.5520624519	3.3353383339	2.4523975745	1.6282313619	2.4249318662	2.087102036
0.3739592057	0.4653315824	1.1454457916	2.0635732016	1.7730776123	2.5802350005	3.3039186847	2.4874241281	1.7620139268	2.659687809	1.7480278091
0.3797790955	0.472645094	1.1612462328	2.0864653733	1.7509558569	2.6027724935	3.2626367736	2.5087918378	1.9398483313	2.8829985695	2.0830073245
0.3855839923	0.4799434036	1.1769166758	2.1089044821	1.7294955544	2.6197850059	3.2127990064	2.5114144659	2.1628568558	3.1107030198	3.5100188896
0.3913736668	0.4872262788	1.1924561581	2.130889043	1.7087751999	2.6314366383	3.1557559117	2.4926910239	2.4219339084	3.331994413	4.2552076666
0.3971478906	0.4944934875	1.2078637618	2.1524177821	1.6888667537	2.6379386589	3.0928580619	2.451976095	2.693244794	3.4885421365	3.0522214764
0.4029064357	0.5017447984	1.2231386136	2.1734896353	1.6698356599	2.6395426512	3.0254187961	2.3900942705	2.9388451266	3.4861560923	2.5482703935
0.4086490747	0.508979981	1.2382798845	2.194103747	1.6517408953	2.6365337815	2.9546845599	2.3089624553	3.1132885702	3.2458203809	3.0768110043
0.414375581	0.516198805	1.2532867904	2.2142594684	1.6346350464	2.6292242867	2.8818130821	2.2113288068	3.1745915852	2.7814349532	2.9781374696
0.4200857284	0.523401041	1.2681585911	2.2339563557	1.6185644129	2.6179472637	2.8078590967	2.1006040055	3.0958184162	2.247369087	1.9761634198
0.4257792916	0.5305864604	1.2828945912	2.2531941686	1.6035691359	2.6030508265	2.7337669203	1.9807455328	2.8730678413	1.8782118969	0.8790259504
0.4314560457	0.5377548349	1.2974941393	2.2719728682	1.5896833475	2.5848926809	2.6603689189	1.8561538826	2.5270925762	1.820926709	2.3396934867
0.4371157667	0.5449059371	1.311956628	2.2902926147	1.5769353407	2.5638351548	2.5883887428	1.7315470354	2.0983527781	1.9997823663	2.023526189
0.442758231	0.5520395401	1.326281494	2.3081537657	1.5653477576	2.5402407063	2.5184481549	1.6117926819	1.6376599565	2.1687768561	1.7782702964
0.4483832161	0.559155418	1.3404682179	2.3255568735	1.5549377926	2.5144679209	2.4510763173	1.5016935839	1.1956932125	2.11466432	2.8923487257
0.4539904997	0.5662533452	1.3545163236	2.3425026828	1.5457174097	2.4868680012	2.3867204981	1.4057371584	0.8143579403	1.8068730789	0.8219311716
0.4595798606	0.573333097	1.3684253784	2.3589921284	1.5376935719	2.4577817405	2.3257573018	1.3278330685	0.5217021891	1.3737560745	1.385135348
0.4651510781	0.5803944495	1.382194993	2.375026332	1.5308684795	2.4275369654	2.2685036901	1.2710700221	0.3306538569	0.9807415318	1.8966114958
0.4707039322	0.5874371793	1.3958248206	2.3906066	1.5252398171	2.3964464286	2.2152272261	1.2375238241	0.2407671747	0.7404180825	1.7324662717
0.4762382037	0.5944610639	1.4093145573	2.4057344204	1.5208010056	2.3648061247	2.166155136	1.2281430596	0.2416916451	0.6960052139	1.6887362536
0.4817536741	0.6014658814	1.4226639412	2.4204114599	1.5175414599	2.3328940014	2.1214819237	1.2427280158	0.3171227426	0.8413596606	1.7867715388
0.4872501257	0.6084514107	1.4358727526	2.434639561	1.5154468484	2.3009690334	2.0813754035	1.2800050148	0.4483402528	1.1349694337	1.5713311604
0.4927273415	0.6154174316	1.4489408134	2.4484207386	1.5144993535	2.2692706276	2.0459811122	1.3377850251	0.616865947	1.4962811259	0.9654313062
0.4981851053	0.6223637243	1.4618679866	2.461757177	1.5146779328	2.2380183244	2.0154251482	1.4131847968	0.8061310309	1.802814572	0.8105419318
0.5036232016	0.6292900702	1.4746541762	2.4746512266	1.5159585779	2.2074117618	1.9898155466	1.5028824844	1.0022755267	1.9186485341	1.6523680294
0.5090414158	0.6361962511	1.487299327	2.4871054005	1.5183145708	2.1776308701	1.9692423435	1.6033783849	1.1943092038	1.7640552791	2.5364925488
0.5144395338	0.6430820499	1.4998034234	2.4991223711	1.5217167359	2.1488362633	1.9537765197	1.7112345295	1.373880591	1.3868682745	2.3120425139
0.5198173426	0.64994725	1.5121664899	2.5107049664	1.5261336881	2.1211697986	1.9434680309	1.8232732008	1.5348667106	0.9675657643	1.1814775533
0.52517463	0.6567916358	1.5243885901	2.5218561668	1.5315320737	2.094755273	1.9383431498	1.9367223826	1.6729434624	0.7313958555	0.1561678865
0.5305111843	0.6636149925	1.5364698263	2.5325791012	1.5378768058	2.0696992327	1.9384013494	2.049304155	1.7852445541	0.8229820674	-0.1369302866
0.535826795	0.670417106	1.5484103392	2.5428770433	1.5451312918	2.0460918682	1.9436119576	2.1592689005	1.8701734302	1.2333342295	0.2586442615
0.5411212521	0.6771977632	1.5602103074	2.5527534079	1.5532576527	2.0240079742	1.9539108101	2.2653831707	1.9273972183	1.8208367482	0.9782936805
0.5463943467	0.6839567516	1.5718699468	2.5622117474	1.5622169344	2.0035079537	1.9691971195	2.3668819426	1.9580191075	2.3943168894	1.6643619857
0.5516458706	0.6906938599	1.5833895099	2.5712557474	1.5719693097	1.9846388477	1.9893307621	2.4633969306	1.9648897695	2.7966730352	2.0955067039
0.5568756165	0.6974088772	1.5947692859	2.5798892233	1.5824742713	1.9674353761	2.0141301683	2.5548720198	1.9529762915	2.9493344147	2.1990363239
0.5620833779	0.7041015938	1.6060095994	2.5881161162	1.5936908145	1.951920974	2.0433709752	2.6414752705	1.9296617043	2.8542102933	2.0190630744
0.5672689491	0.7107718009	1.6171108103	2.595940489	1.6055776113	1.938108814	2.0767855731	2.7235148018	1.904811076	2.5706605827	1.6630721654
0.5724321256	0.7174192902	1.6280733133	2.6033665224	1.6180931734	1.9260028024	2.114063645	2.8013636165	1.8904304933	2.1863933491	1.2459991208
0.5775727034	0.7240438546	1.6388975369	2.6103985108	1.6311960057	1.9155985431	2.1548537583	2.875396363	1.8997846432	1.7932703558	0.873434152
0.5826904797	0.730645288	1.6495839433	2.6170408586	1.6448447502	1.9068842608	2.1987660322	2.9459393226	1.9459408435	1.4711705586	0.6936423438
0.5877852523	0.7372233848	1.6601330274	2.6232980758	1.6589983194	1.8998416795	2.2453758626	3.0132336193	2.0398655698	1.2788860108	0.9575147622
0.5928568202	0.7437779406	1.6705453164	2.6291747741	1.6736160199	1.8944468522	2.294228643	3.0774107743	2.1883783889	1.2500387112	1.7845249186
0.5979049831	0.7503087518	1.6808213694	2.634675663	1.6886576667	1.8906709386	2.3448453875	3.1384792093	2.3924069766	1.3925535878	2.3690421063
0.6029295417	0.7568156159	1.6909617762	2.6398055454	1.7040836877	1.888480929	2.3967291208	3.1963200723	2.6460188035	1.6909785502	1.5236202622
0.6079302977	0.7632983312	1.7009671572	2.6445693139	1.7198552187	1.8878403146	2.4493718746	3.2506907314	2.9365881553	2.1112748036	1.168776981
0.6129070537	0.7697566968	1.7108381625	2.6489719464	1.7359341902	1.8887097024	2.5022621051	3.301234384	3.2462021113	2.6075334775	3.1947832064
0.6178596131	0.7761905129	1.7205754714	2.6530185023	1.7522834042	1.8910473764	2.5548923302	3.3474944096	3.5540869053	3.1296529303	3.7479916718
0.6227877805	0.7825995808	1.7301797917	2.6567141183	1.7688666039	1.8948098063	2.6067667768	3.3889322948	3.8395554568	3.6306766851	2.7651584185
0.6276913613	0.7889837025	1.7396518587	2.6600640042	1.7856485341	1.8999521033	2.6574088319	3.424948165	4.0848390625	4.0724983616	3.4884502714
0.6325701619	0.7953426811	1.7489924353	2.6630734395	1.8025949946	1.906428428	2.7063680957	3.4549031324	4.2772195067	4.4290414325	4.9350715042
0.6374239897	0.8016763207	1.7582023105	2.6657477686	1.8196728856	1.9141923491	2.7532268543	3.4781428185	4.4100962377	4.6866725181	5.6573026078
0.6422526532	0.8079844264	1.7672822994	2.6680923973	1.8368502468	1.9231971582	2.7976058109	3.4940215193	4.4829210624	4.8422628136	5.8235059146
0.6470559616	0.8142668041	1.7762332419	2.6701127886	1.8540962889	1.933396141	2.8391689446	3.5019265548	4.5002055076	4.8997685445	5.8557835254
0.6518337253	0.8205232609	1.7850560028	2.6718144591	1.8713814193	1.9447428094	2.8776273932	3.5013023879	4.4699743658	4.8663880788	5.8596318505
0.6565857558	0.8267536048	1.7937514702	2.6732029747	1.8886772616	1.957191095	2.9127422965	3.4916741154	4.4020749155	4.7493386899	5.7072708645
0.6613118653	0.832957645	1.8023205557	2.6742839469	1.90595667	1.9706955097	2.9443265669	3.4726699289	4.3066768292	4.5542054734	5.2040043033
0.6660118674	0.8391351916	1.8107641928	2.675063029	1.9231937375	1.9852112726	2.9722455905	3.4440421262	4.1931638947	4.2857070618	4.3119461897
0.6706855765	0.8452860556	1.8190833372	2.6755459123	1.9403638001	2.0006944094	2.996416892	3.4056862313	4.069479205	3.9514731668	3.2952020864
0.6753328081	0.8514100493	1.8272789653	2.6757383221	1.9574434366	2.0171018245	3.0168088279	3.357657755	3.9418781393	3.5686944408	2.5726811715
0.6799533787	0.8575069858	1.835352074	2.6756460144	1.9744104629	2.0343913492	3.0334383933	3.3001861076	3.8149834984	3.1718890405	2.3893382515
0.6845471059	0.8635766794	1.8433036796	2.675274772	1.9912439244	2.0525217688	3.046368249	3.2336851665	3.6920211323	2.8175776326	2.6572937784
0.6891138084	0.8696189454	1.8511348175	2.6746304007	2.0079240833	2.0714528311	3.0557030909	3.1587600108	3.5751288311	2.5795831324	3.0940412335
0.6936533058	0.8756336003	1.8588465414	2.6737187261	2.0244324036	2.0911452381	3.061585488	3.0762093558	3.4656606978	2.529625903	3.4606410371
0.698165419	0.8816204614	1.8664399224	2.6725455899	2.0407515328	2.1115606231	3.0641913253	2.9870232764	3.3644414078	2.7045571168	3.6773724517
0.7026499698	0.8875793474	1.8739160485	2.6711168463	2.0568652814	2.132661516	3.0637249826	2.8923758801	3.2719522506	3.073180923	3.7779925584
0.7071067812	0.8935100779	1.8812760239	2.6694383589	2.0727585996	2.1544112991	3.060414375	2.7936126944	3.1884505797	3.5248524347	3.8023107667
0.7115356772	0.8994124737	1.8885209684	2.667515997	2.0884175527	2.1767741533	3.0545059769	2.6922326646	3.1140360491	3.897787716	3.73320038
0.715936483	0.9052863565	1.8956520164	2.6653556326	2.1038292936	2.1997149991	3.0462599341	2.5898648076	3.0486820464	4.0429534437	3.5139178933
0.7203090249	0.9111315493	1.9026703165	2.6629631371	2.118982035	2.2231994324	3.0359453596	2.4882397489	2.9922507185	3.8918923267	3.1110258749
0.7246531302	0.9169478762	1.9095770308	2.6603443779	2.1338650193	2.2471936574	3.0238358918	2.3891565564	2.9445065857	3.4874938894	2.5619322433
0.7289686274	0.9227351624	1.9163733343	2.6575052158	2.1484684883	2.2716644171	3.0102055794	2.2944454884	2.9051384318	2.9581930825	1.9697336106
0.7332553462	0.9284932342	1.9230604138	2.6544515013	2.1627836506	2.2965789244	2.9953251428	2.2059274706	2.8737932199	2.4534990171	1.4541469571
0.7375131174	0.934221919	1.9296394678	2.6511890722	2.1768026502	2.321904794	2.9794586438	2.1253713108	2.8501203201	2.0814060998	1.0972129871
0.7417417727	0.9399210454	1.9361117055	2.6477237505	2.1905185328	2.3476099749	2.9628605875	2.0544498291	2.8338202218	1.8796434559	0.9174462243
0.7459411454	0.9455904433	1.9424783463	2.6440613393	2.2039252125	2.3736626882	2.9457734601	1.9946962188	2.8246896834	1.8249958273	0.8791550575
0.7501110696	0.9512299435	1.948740619	2.6402076206	2.2170174385	2.4000313666	2.9284257031	1.9474620532	2.8226551176	1.8628622676	0.9210547712
0.7542513807	0.956839378	1.9548997612	2.6361683521	2.229790761	2.4266846003	2.9110301084	1.913878396	2.8277876874	1.9358768692	0.9841655956
0.7583619153	0.9624185802	1.960957019	2.6319492648	2.242241498	2.4535910869	2.8937826157	1.8948214594	2.8402965374	2.0005913707	1.0285400515
0.762442511	0.9679673844	1.9669136456	2.6275560604	2.254366701	2.4807195886	2.8768614843	1.8908841737	2.8605000896	2.0327505081	1.0394431092
0.7664930068	0.9734856263	1.9727709016	2.6229944089	2.2661641224	2.5080388946	2.8604268097	1.9023548895	2.888778647	2.02730025	1.0287531654
0.7705132428	0.9789731426	1.9785300536	2.6182699462	2.277632182	2.5355177915	2.8446203486	1.9292042173	2.9255140939	1.9986972947	1.0360890137
0.7745030602	0.9844297713	1.9841923742	2.6133882716	2.2887699347	2.5631250399	2.8295656194	1.9710807463	2.9710239167	1.9829553611	1.1290663587
0.7784623016	0.9898553517	1.9897591409	2.6083549456	2.2995770383	2.5908293589	2.8153682392	2.0273160606	3.0254970146	2.037433675	1.3958402402
0.7823908106	0.995249724	1.9952316357	2.603175488	2.3100537219	2.6185994179	2.8021164625	2.0969391203	3.0889379787	2.2299931693	1.919294446
0.7862884321	1.00061273	2.0006111448	2.5978553755	2.3202007552	2.6464038359	2.7898818867	2.1786997002	3.1611249805	2.6101582076	2.727084088
0.7901550124	1.0059442124	2.0058989575	2.5924000396	2.3300194181	2.6742111883	2.7787202915	2.2711002095	3.2415844871	3.1663362198	3.7309382522
0.7939903986	1.0112440153	2.0110963659	2.5868148649	2.3395114711	2.701990021	2.7686725803	2.3724348615	3.3295840327	3.7931549902	4.6966898879
0.7977944395	1.016511984	2.0162046645	2.5811051873	2.3486791267	2.7297088714	2.759765798	2.4808348507	3.4241424856	4.3052604347	5.2975199842
0.8015669849	1.0217479651	2.0212251491	2.5752762917	2.3575250213	2.7573362965	2.7520141974	2.5943179431	3.5240558313	4.5154114365	5.2645850524
0.8053078857	1.0269518062	2.0261591169	2.5693334108	2.3660521879	2.7848409078	2.7454203337	2.7108406995	3.6279355021	4.3441336677	4.5658122658
0.8090169944	1.0321233565	2.0310078656	2.563281723	2.3742640302	2.8121914113	2.7399761665	2.8283514586	3.7342557421	3.8857010133	3.4830731526
0.8126941644	1.0372624662	2.0357726929	2.5571263513	2.3821642963	2.8393566544	2.735664154	2.9448421953	3.8414063362	3.3719554209	2.5009282576
0.8163392507	1.0423689868	2.040454896	2.5508723613	2.3897570548	2.8663056773	2.7324583242	3.0583974521	3.9477471876	3.0506201368	2.0583650035
0.8199521093	1.0474427712	2.0450557711	2.5445247603	2.3970466703	2.8930077695	2.7303253133	3.1672387081	4.0516616008	3.0615931347	2.3285592552
0.8235325976	1.0524836734	2.0495766129	2.5380884952	2.404037781	2.9194325295	2.7292253608	3.2697627876	4.1516056535	3.3899524587	3.1686914805
0.8270805743	1.0574915488	2.054018714	2.5315684521	2.4107352765	2.9455499296	2.7291132556	3.3645732117	4.2461516268	3.9085165899	4.245930676
0.8305958992	1.0624662541	2.0583833648	2.5249694542	2.4171442763	2.9713303823	2.729939227	3.4505037357	4.3340240751	4.4618877019	5.2271207208
0.8340784336	1.0674076472	2.0626718524	2.5182962613	2.4232701096	2.9967448094	2.7316497788	3.5266336721	4.414127699	4.9341945993	5.9103594372
0.83752804	1.0723155873	2.0668854607	2.5115535686	2.4291182959	3.0217647131	2.7341884626	3.5922949656	4.4855667099	5.2738822291	6.2519417554
0.8409445823	1.0771899349	2.0710254695	2.5047460052	2.4346945262	3.0463622477	2.7374965907	3.6470713215	4.5476558332	5.4830373462	6.3181837368
0.8443279255	1.0820305519	2.0750931543	2.497878134	2.4400046449	3.0705102923	2.741513889	3.690789996	4.5999234641	5.5926110138	6.2173467869
0.8476779361	1.0868373015	2.0790897861	2.49095445	2.4450546332	3.0941825225	2.7461790902	3.7235071114	4.6421077749	5.6403715006	6.0496719663
0.8509944818	1.0916100481	2.0830166302	2.48397938	2.4498505924	3.117353482	2.7514304692	3.7454875483	4.6741467702	5.6580210148	5.885466163
0.8542774317	1.0963486575	2.0868749468	2.4769572818	2.4543987286	3.1399986522	2.757206323	3.7571805971	4.6961634038	5.6665087181	5.7637084694
0.8575266562	1.1010529969	2.0906659895	2.4698924432	2.458705338	3.1620945207	2.7634453981	3.7591926095	4.7084469154	5.6760579493	5.6997081341
0.860742027	1.1057229346	2.094391006	2.4627890818	2.4627767927	3.1836186463	2.7700872673	3.7522578881	4.7114315314	5.6879650358	5.6937096979
0.8639234172	1.1103583405	2.0980512368	2.4556513443	2.4666195276	3.2045497217	2.7770726596	3.7372089904	4.7056736079	5.6966692846	5.7369506182
0.8670707012	1.1149590857	2.1016479153	2.4484833057	2.4702400277	3.2248676322	2.7843437464	3.714947518	4.6918281898	5.6917578715	5.814809941
0.8701837547	1.1195250427	2.1051822673	2.4412889696	2.4736448161	3.2445535112	2.7918443863	3.6864163156	4.6706258348	5.6601227061	5.9080875018
0.8732624548	1.1240560853	2.1086555106	2.4340722669	2.4768404428	3.2635897908	2.7995203324	3.6525738379	4.6428504028	5.5885044688	5.9937354441
0.87630668	1.1285520887	2.1120688548	2.4268370562	2.4798334743	3.2819602478	2.8073194055	3.6143712609	4.6093183682	5.4663526342	6.0461041351
0.8793163102	1.1330129294	2.1154235008	2.4195871233	2.482630483	3.299650045	2.8151916341	3.5727327327	4.5708600607	5.2885463853	6.0392810699
0.8822912264	1.1374384855	2.1187206404	2.412326181	2.4852380383	3.3166457676	2.8230893673	3.5285389819	4.5283031097	5.057291847	5.9505382036
0.8852313113	1.1418286361	2.1219614562	2.4050578689	2.4876626974	3.3329354533	2.83096736	3.4826143479	4.48245824	4.7825825717	5.7643572106
0.8881364488	1.146183262	2.1251471212	2.3977857532	2.4899109972	3.3485086177	2.8387828348	3.435717153	4.4341074609	4.480978702	5.4760927939
0.8910065242	1.1505022451	2.1282787983	2.3905133271	2.4919894461	3.3633562734	2.8464955232	3.3885332301	4.3839946051	4.1729698977	5.0941982856
0.8938414242	1.154785469	2.1313576404	2.3832440103	2.4939045172	3.3774709441	2.8540676868	3.3416723254	4.3328180993	3.8796125441	4.6401674648
0.8966410368	1.1590328184	2.1343847897	2.3759811494	2.4956626411	3.3908466721	2.8614641222	3.2956670412	4.2812257983	3.6192984012	4.1459132274
0.8994052516	1.1632441796	2.1373613777	2.3687280177	2.4972701996	3.4034790205	2.8686521501	3.2509739412	4.2298116764	3.4053788938	3.6490301837
0.9021339594	1.1674194402	2.1402885246	2.3614878157	2.4987335197	3.4153650699	2.8756015919	3.2079764291	4.1791141482	3.2450299303	3.1870061986
0.9048270525	1.1715584892	2.1431673394	2.3542636709	2.5000588684	3.4265034091	2.8822847341	3.1669890137	4.1296157784	3.1393551764	2.7917211562
0.9074844245	1.175661217	2.1459989197	2.3470586383	2.5012524473	3.4368941203	2.8886762824	3.1282625908	4.0817441426	3.0844305089	2.4854107473
0.9101059707	1.1797275154	2.148784351	2.3398757008	2.5023203879	3.4465387595	2.8947533077	3.0919904027	4.035873606	3.0728566702	2.2787723328
0.9126915874	1.1837572778	2.1515247066	2.3327177691	2.5032687472	3.4554403318	2.9004951835	3.0583143738	3.9923278015	3.0954027038	2.1712642395
0.9152411726	1.1877503988	2.1542210479	2.3255876824	2.5041035042	3.463603261	2.9058835179	3.0273315601	3.9513826077	3.142434674	2.1531248431
0.9177546257	1.1917067745	2.1568744234	2.3184882085	2.5048305552	3.4710333557	2.9109020798	2.9991004964	3.9132694464	3.2049677482	2.2083548026
0.9202318474	1.1956263025	2.1594858689	2.3114220447	2.5054557115	3.4777377705	2.9155367205	2.9736472666	3.8781787426	3.2753061555	2.3178876146
0.9226727399	1.1995088816	2.1620564075	2.3043918178	2.5059846956	3.4837249633	2.9197752926	2.9509711635	3.8462634131	3.3473208944	2.4623498127
0.9250772068	1.2033544123	2.1645870489	2.2974000846	2.5064231387	3.4890046491	2.9236075648	2.9310498431	3.8176422741	3.4164566175	2.6240739111
0.9274451533	1.2071627964	2.1670787894	2.290449333	2.5067765784	3.4935877499	2.9270251362	2.9138439115	3.7924032765	3.4795665112	2.7882777566
0.9297764859	1.2109339372	2.169532612	2.2835419819	2.5070504558	3.4974863422	2.9300213483	2.8993009105	3.7706065052	3.5346606983	2.9435054124
0.9320711125	1.2146677394	2.1719494859	2.2766803819	2.5072501141	3.5007136015	2.9325911961	2.8873586955	3.752286891	3.5806316957	3.0815205051
0.9343289425	1.2183641092	2.1743303663	2.2698668165	2.5073807965	3.5032837445	2.9347312397	2.8779482159	3.737456607	3.6169979214	3.1968656572
0.9365498867	1.2220229542	2.1766761944	2.2631035019	2.5074476445	3.5052119692	2.9364395152	2.8709957266	3.7261071353	3.6436875062	3.2862765771
0.9387338577	1.2256441835	2.1789878974	2.2563925883	2.5074556971	3.5065143935	2.937715447	2.8664244708	3.7182110027	3.6608711485	3.348092136
0.940880769	1.2292277077	2.181266388	2.2497361603	2.5074098888	3.5072079925	2.9385597607	2.8641558832	3.7137231982	3.6688441875	3.3817512669
0.9429905359	1.2327734387	2.1835125643	2.2431362378	2.507315049	3.5073105346	2.9389743972	2.8641103672	3.7125822946	3.667953371	3.3874243736
0.9450630752	1.23628129	2.18572731	2.2365947764	2.5071759014	3.5068405173	2.9389624286	2.866207707	3.7147113041	3.65856173	3.3657948317
0.947098305	1.2397511766	2.1879114939	2.2301136687	2.5069970627	3.5058171023	2.9385279763	2.8703671724	3.7200183048	3.6410444473	3.3179842915
0.949096145	1.243183015	2.19006597	2.2236947444	2.5067830427	3.5042600511	2.9376761308	2.8765073783	3.7283968805	3.6158087974	3.2456009943
0.9510565163	1.246576723	2.1921915772	2.2173397719	2.5065382434	3.5021896598	2.9364128735	2.8845459558	3.7397264182	3.5833316029	3.1508800654
0.9529793415	1.2499322199	2.1942891394	2.2110504583	2.506266959	3.4996266959	2.934745002	2.8943990923	3.7538723104	3.5442078896	3.0368764485
0.9548645447	1.2532494267	2.1963594652	2.2048284507	2.5059733756	3.4965923346	2.932680057	2.9059809924	3.770686108	3.4992044336	2.9076639894
0.9567120516	1.2565282658	2.1984033479	2.198675337	2.5056615713	3.4931080968	2.9302262527	2.9192033082	3.790005671	3.449311702	2.7684888683
0.958521789	1.2597686609	2.2004215654	2.1925926468	2.5053355163	3.4891957883	2.9273924092	2.9339745822	3.8116553576	3.3957874575	2.6258241982
0.9602936857	1.2629705374	2.2024148801	2.1865818518	2.5049990728	3.4848774401	2.9241878889	2.9501997422	3.8354462938	3.3401852292	2.4872778789
0.9620276716	1.2661338221	2.2043840387	2.1806443675	2.5046559956	3.4801752507	2.9206225346	2.967779679	3.8611767572	3.2843612063	2.3613201484
0.9637236783	1.2692584434	2.2063297724	2.1747815532	2.5043099322	3.47511153	2.9167066118	2.9866109365	3.8886327036	3.2304541111	2.2568216226
0.9653816388	1.272344331	2.2082527966	2.1689947136	2.5039644234	3.4697086455	2.9124507532	3.006585532	3.917588462	3.1808344126	2.1824252677
0.9670014878	1.2753914164	2.2101538106	2.1632850994	2.5036229037	3.4639889699	2.9078659064	3.0275909245	3.9478076128	3.1380218888	2.1458118556
0.9685831611	1.2783996324	2.2120334981	2.1576539079	2.5032887018	3.4579748314	2.9029632851	3.0495101372	3.9790440609	3.1045738898	2.1529504533
0.9701265965	1.2813689132	2.2138925269	2.1521022847	2.5029650415	3.4516884666	2.8977543227	3.0722220397	4.0110433047	3.082950383	2.2074446702
0.9716317329	1.2842991948	2.2157315484	2.1466313238	2.5026550423	3.4451519746	2.892250629	3.0956017856	4.0435438994	3.0753654778	2.3100844304
0.973098511	1.2871904146	2.2175511982	2.1412420691	2.5023617197	3.4383872751	2.88646395	3.1195213986	4.0762791021	3.0836380557	2.4586887327
0.9745268728	1.2900425114	2.2193520957	2.135935515	2.5020879868	3.4314160672	2.8804061307	3.1438504955	4.1089786825	3.1090557865	2.6482799786
0.9759167619	1.2928554256	2.2211348441	2.1307126073	2.5018366545	3.4242597925	2.8740890803	3.1684571291	4.1413708776	3.1522667464	2.8715738396
0.9772681236	1.2956290992	2.2229000304	2.1255742446	2.5016104326	3.4169395993	2.8675247405	3.1932087312	4.1731844623	3.2132108756	3.119713183
0.9785809043	1.2983634756	2.2246482252	2.1205212785	2.5014119308	3.4094763096	2.8607250565	3.2179731351	4.2041509056	3.2910997475	3.3831335305
0.9798550524	1.3010584998	2.226379983	2.1155545152	2.5012436595	3.4018903897	2.8537019502	3.2426196516	4.2340065774	3.3844480327	3.6524304459
0.9810905174	1.3037141183	2.2280958416	2.1106747158	2.5011080311	3.3942019212	2.8464672965	3.267020175	4.2624949713	3.4911543549	3.919109089
0.9822872507	1.3063302791	2.2297963228	2.1058825978	2.5010073604	3.3864305766	2.8390329017	3.2910502932	4.2893689057	3.6086238194	4.1761286182
0.983445205	1.3089069318	2.2314819317	2.1011788356	2.5009438663	3.3785955957	2.8314104843	3.3145903766	4.3143926669	3.7339201568	4.4181993468
0.9845643345	1.3114440275	2.2331531569	2.0965640618	2.5009196725	3.370715765	2.8236116579	3.3375266229	4.3373440581	3.8639327966	4.6418366514
0.9856445951	1.3139415188	2.2348104708	2.0920388676	2.5009368088	3.3628093994	2.815647917	3.3597520358	4.3580163215	3.9955435584	4.8452122585
0.9866859442	1.3163993598	2.2364543291	2.0876038041	2.5009972118	3.3548943259	2.8075306235	3.3811673179	4.3762199023	4.1257789718	5.0278646088
0.9876883406	1.3188175064	2.2380851709	2.0832593831	2.5011027266	3.3469878694	2.7992709967	3.4016816602	4.391784027	4.2519371303	5.1903345092
0.9886517447	1.3211959156	2.2397034188	2.0790060778	2.5012551074	3.339106841	2.7908801041	3.4212134165	4.4045580741	4.3716818686	5.3337834864
0.9895761186	1.3235345464	2.2413094788	2.0748443241	2.501456019	3.3312675273	2.7823688542	3.4396906501	4.4144127166	4.483101242	5.4596357974
0.9904614257	1.3258333589	2.2429037405	2.070774521	2.5017070377	3.3234856826	2.7737479913	3.4570515469	4.4212408234	4.5847311824	5.5692669004
0.9913076311	1.3280923152	2.2444865767	2.0667970317	2.5020096527	3.3157765222	2.7650280917	3.4732446913	4.4249581101	4.6755483307	5.6637461073
0.9921147013	1.3303113786	2.2460583434	2.0629121845	2.502365267	3.308154718	2.7562195608	3.488229203	4.4255035342	4.7549381435	5.7436319271
0.9928826046	1.332490514	2.2476193804	2.0591202736	2.5027751988	3.3006343945	2.7473326325	3.501974739	4.4228394356	4.8226453977	5.8088161088
0.9936113105	1.334629688	2.2491700104	2.0554215597	2.5032406827	3.2932291281	2.7383773694	3.5144613647	4.416951426	4.8787142666	5.8584158392
0.9943007904	1.3367288687	2.2507105397	2.0518162712	2.5037628706	3.285951946	2.7293636638	3.5256793016	4.4078480359	4.9234244551	5.8907211451
0.994951017	1.3387880255	2.2522412579	2.0483046049	2.5043428331	3.2788153275	2.7203012401	3.5356285629	4.3955601318	4.9572287161	5.9032137654
0.9955619646	1.3408071298	2.2537624378	2.0448867265	2.5049815605	3.2718312061	2.7111996588	3.5443184858	4.380140118	4.9806956864	5.8926816398
0.9961336091	1.3427861543	2.2552743357	2.0415627718	2.5056799645	3.265010973	2.7020683197	3.551767175	4.3616609411	4.9944605935	5.8554564447
0.996665928	1.344725073	2.2567771908	2.0383328473	2.5064388786	3.258365481	2.6929164678	3.5580008694	4.3402149172	4.999185139	5.7877970566
0.9971589003	1.346623862	2.2582712261	2.0351970308	2.5072590597	3.2519050503	2.6837531981	3.5630532463	4.3159124025	4.9955268578	5.686426839
0.9976125064	1.3484824986	2.2597566475	2.0321553726	2.5081411895	3.2456394738	2.6745874626	3.5669646765	4.2888803308	4.9841174934	5.5492061895
0.9980267284	1.3503009617	2.2612336445	2.0292078956	2.509085875	3.239578025	2.6654280762	3.5697814443	4.2592606398	4.9655494331	5.3758855526
0.9984015501	1.3520792318	2.2627023895	2.0263545966	2.5100936504	3.2337294644	2.6562837244	3.5715549438	4.2272086098	4.9403689581	5.1688434407
0.9987369566	1.3538172909	2.2641630385	2.0235954467	2.5111649778	3.2281020484	2.64716297	3.5723408665	4.1928911376	4.9090749429	4.9336780571
0.9990329347	1.3555151227	2.2656157306	2.0209303919	2.5123002482	3.2227035373	2.6380742614	3.5721983878	4.1564849675	4.8721216464	4.6795016727
0.9992894726	1.3571727122	2.2670605882	2.0183593543	2.5134997833	3.2175412051	2.6290259397	3.5711893655	4.118174901	4.8299243195	4.4187956904
0.9995065604	1.3587900463	2.268497717	2.0158822321	2.5147638361	3.2126218481	2.6200262467	3.5693775572	4.0781520047	4.7828664899	4.1667291016
0.9996841893	1.3603671133	2.2699272059	2.0134989006	2.5160925919	3.2079517952	2.6110833322	3.5668278658	4.0366118357	4.7313079486	3.9399236016
0.9998223524	1.3619039028	2.2713491272	2.0112092128	2.51748617	3.2035369178	2.6022052623	3.5636056175	3.993752701	4.6755926312	3.7547542639
0.9999210442	1.3634004064	2.2727635363	2.009013	2.5189446243	3.1993826396	2.5934000261	3.5597758796	3.9497739676	4.6160557628	3.6253845175
0.9999802609	1.364856617	2.2741704719	2.0069100723	2.5204679446	3.1954939475	2.5846755431	3.5554028204	3.9048744355	4.5530298028	3.5618213087
1	1.3662725291	2.2755699559	2.0049002194	2.5220560575	3.1918754014	2.5760396697	3.550549115	3.8592507874	4.4868488827	3.5683148955
0.9999802609	1.3676481388	2.2769619937	2.002983211	2.523708828	3.1885311451	2.5675002059	3.5452753984	3.8130961255	4.4178515778	3.6424011343
0.9999210442	1.3689834437	2.2783465736	2.0011587973	2.5254260598	3.1854649162	2.5590649009	3.5396397668	3.7665986035	4.3463819806	3.7747913685
0.9998223524	1.3702784431	2.2797236675	1.9994267097	2.5272074968	3.1826800571	2.5507414585	3.5336973277	3.7199401625	4.2727891563	3.9501727491
0.9996841893	1.3715331377	2.2810932304	1.9977866613	2.5290528242	3.1801795245	2.5425375418	3.5274997983	3.6732953754	4.197425152	4.1488206326
0.9995065604	1.3727475298	2.2824552005	1.9962383471	2.5309616692	3.1779659001	2.5344607774	3.5210951501	3.6268304059	4.120641795	4.3487810799
0.9992894726	1.3739216233	2.2838094993	1.9947814451	2.5329336023	3.1760414005	2.5265187585	3.5145273001	3.580702085	4.0427865626	4.52828749
0.9990329347	1.3750554237	2.2851560316	1.9934156159	2.534968138	3.1744078865	2.5187190475	3.5078358456	3.5350571057	3.9641978266	4.6680499715
0.9987369566	1.3761489379	2.2864946854	1.9921405042	2.5370647362	3.1730668734	2.511069178	3.5010558405	3.4900313397	3.8851997736	4.7531005343
0.9984015501	1.3772021745	2.2878253322	1.9909557382	2.5392228025	3.1720195398	2.5035766557	3.4942176124	3.4457492736	3.8060972895	4.7739763051
0.9980267284	1.3782151436	2.2891478263	1.9898609307	2.54144169	3.1712667372	2.4962489582	3.487346617	3.4023235656	3.727171059	4.7271505096
0.9976125064	1.3791878568	2.2904620058	1.9888556794	2.5437206993	3.1708089981	2.4890935341	3.4804633289	3.3598547199	3.6486730974	4.6147477036
0.9971589003	1.3801203276	2.2917676916	1.9879395669	2.5460590802	3.1706465453	2.4821178014	3.4735831668	3.3184308776	3.5708228803	4.443681118
0.996665928	1.3810125705	2.2930646883	1.9871121617	2.5484560319	3.1707792997	2.4753291446	3.4667164504	3.2781277203	3.4938041946	4.2244111146
0.9961336091	1.381864602	2.2943527834	1.9863730179	2.5509107045	3.1712068885	2.4687349105	3.4598683897	3.2390084831	3.4177627914	3.9695410595
0.9955619646	1.3826764399	2.2956317479	1.9857216759	2.5534221993	3.1719286525	2.4623424039	3.4530391027	3.2011240741	3.3428048799	3.6924464722
0.994951017	1.3834481037	2.2969013361	1.9851576629	2.5559895699	3.1729436538	2.4561588813	3.4462236636	3.1645132943	3.26899648	3.40608724
0.9943007904	1.3841796145	2.2981612856	1.9846804925	2.5586118229	3.1742506828	2.4501915438	3.4394121784	3.1292031542	3.1963636229	3.1220950717
0.9936113105	1.3848709948	2.2994113171	1.9842896659	2.5612879188	3.1758482643	2.4444475297	3.4325898885	3.0952092826	3.1248933866	2.8501717136
0.9928826046	1.3855222686	2.300651135	1.9839846714	2.5640167726	3.1777346648	2.4389339048	3.4257373021	3.0625364209	3.0545357462	2.5977866483
0.9921147013	1.3861334617	2.3018804265	1.9837649851	2.5667972544	3.1799078976	2.4336576528	3.4188303534	3.0311789982	2.9852062296	2.3701305609
0.9913076311	1.3867046012	2.3030988627	1.983630071	2.5696281904	3.1823657292	2.4286256639	3.4118405893	3.0011217813	2.9167893837	2.1702634995
0.9904614257	1.387235716	2.3043060976	1.9835793812	2.5725083633	3.1851056844	2.4238447229	3.4047353847	2.9723405932	2.8491430764	1.9993923036
0.9895761186	1.3877268364	2.3055017688	1.9836123562	2.5754365131	3.1881250514	2.419321496	3.3974781856	2.9448030947	2.7821036872	1.8572170499
0.9886517447	1.3881779941	2.3066854972	1.9837284249	2.5784113375	3.191420887	2.4150625165	3.3900287823	2.9184696213	2.7154922661	1.742297141
0.9876883406	1.3885892226	2.3078568871	1.9839270049	2.5814314928	3.1949900204	2.4110741702	3.3823436106	2.89329407	2.6491217725	1.6524008697
0.9866859442	1.3889605568	2.3090155261	1.9842075029	2.5844955937	3.1988290581	2.4073626796	3.3743760838	2.869224829	2.5828055316	1.5848153114
0.9856445951	1.3892920333	2.3101609853	1.9845693143	2.5876022149	3.2029343876	2.4039340866	3.3660769538	2.8462057417	2.5163670723	1.5366046337
0.9845643345	1.38958369	2.3112928194	1.9850118239	2.5907498905	3.2073021809	2.4007942354	3.3573947023	2.8241770999	2.4496515219	1.5048136263
0.983445205	1.3898355664	2.3124105663	1.9855344055	2.5939371149	3.2119283987	2.3979487543	3.3482759612	2.803076657	2.3825387369	1.48661931
0.9822872507	1.3900477038	2.3135137475	1.9861364226	2.5971623432	3.2168087925	2.3954030365	3.338665962	2.7828406527	2.3149583247	1.4794371382
0.9810905174	1.3902201447	2.314601868	1.9868172278	2.6004239914	3.2219389087	2.3931622206	3.3285090129	2.7634048432	2.246906662	1.4809900423
0.9798550524	1.3903529332	2.3156744164	1.9875761634	2.6037204368	3.2273140909	2.3912311702	3.3177490019	2.7447055248	2.178465922	1.4893488828
0.9785809043	1.3904461152	2.3167308648	1.9884125614	2.6070500179	3.2329294822	2.3896144537	3.3063299245	2.7266805443	2.1098249786	1.502952238
0.9772681236	1.3904997377	2.3177706689	1.9893257432	2.6104110352	3.2387800285	2.3883163228	3.294196433	2.7092702861	2.0413018429	1.5206122748
0.9759167619	1.3905138496	2.3187932681	1.9903150201	2.6138017505	3.2448604798	2.3873406911	3.2812944048	2.6924186242	1.9733670026	1.5415119669
0.9745268728	1.3904885012	2.3197980855	1.9913796929	2.6172203878	3.2511653932	2.3866911123	3.2675715251	2.6760738308	1.9066666619	1.5651973627
0.973098511	1.3904237442	2.3207845277	1.9925190522	2.6206651329	3.2576891341	2.3863707585	3.2529778816	2.6601894294	1.8420444193	1.5915670526
0.9716317329	1.3903196319	2.3217519854	1.9937323783	2.6241341334	3.2644258787	2.3863823978	3.2374665639	2.6447249817	1.7805593918	1.6208595133
0.9701265965	1.3901762192	2.3226998329	1.9950189413	2.6276254987	3.2713696156	2.3867283723	3.2209942647	2.6296467955	1.7234982088	1.6536376548
0.9685831611	1.3899935625	2.3236274283	1.9963780008	2.6311372997	3.2785141473	2.3874105761	3.2035218753	2.6149285444	1.6723777217	1.6907686864
0.9670014878	1.3897717196	2.3245341138	1.997808806	2.6346675688	3.2858530922	2.3884304335	3.1850150692	2.6005517855	1.6289347752	1.7333964059
0.9653816388	1.3895107499	2.3254192154	1.9993105959	2.6382142995	3.293379886	2.3897888767	3.1654448678	2.5865063648	1.5950990686	1.782902278
0.9637236783	1.3892107143	2.3262820434	2.0008825989	2.6417754461	3.3010877831	2.3914863252	3.1447881803	2.5727906988	1.5729451421	1.8408512896
0.9620276716	1.3888716752	2.3271218918	2.0025240328	2.6453489232	3.3089698585	2.3935226644	3.12302831	2.5594119231	1.5646199983	1.9089187135
0.9602936857	1.3884936965	2.3279380392	2.0042341049	2.6489326054	3.3170190092	2.3958972249	3.1001554208	2.546385898	1.5722439775	1.9887946891
0.958521789	1.3880768436	2.3287297481	2.0060120116	2.6525243266	3.3252279558	2.3986087632	3.0761669552	2.5337370629	1.5977843596	2.0820651029
0.9567120516	1.3876211834	2.3294962655	2.0078569387	2.6561218793	3.333589244	2.4016554418	3.051067996	2.5214981347	1.642903846	2.1900696685
0.9548645447	1.3871267843	2.3302368227	2.009768061	2.6597230141	3.3420952465	2.4050348115	3.0248715661	2.5097096454	1.7087895118	2.3137413615
0.9529793415	1.3865937161	2.3309506356	2.0117445421	2.6633254388	3.3507381645	2.4087437929	2.9975988576	2.4984193167	1.7959718279	2.4534352701
0.9510565163	1.3860220504	2.3316369046	2.0137855348	2.6669268176	3.3595100297	2.4127786606	2.9692793854	2.4876812747	1.9041475276	2.6087591124
0.949096145	1.3854118599	2.3322948149	2.0158901802	2.67052477	3.3684027061	2.4171350269	2.9399510582	2.4775551074	2.0320238753	2.7784215912
0.947098305	1.384763219	2.3329235363	2.0180576082	2.6741168699	3.3774078922	2.4218078279	2.9096601644	2.4681047739	2.177204533	2.9601176652
0.9450630752	1.3840762036	2.3335222236	2.0202869371	2.6777006446	3.3865171229	2.4267913096	2.8784612665	2.4593973772	2.3361379437	3.1504709145
0.9429905359	1.3833508908	2.3340900165	2.0225772735	2.6812735734	3.395721772	2.4320790162	2.846417003	2.4515018153	2.5041472183	3.3450517079
0.940880769	1.3825873597	2.33462604	2.0249277118	2.6848330862	3.4050130547	2.4376637796	2.8135977959	2.4444873313	2.6755554714	3.5384853374
0.9387338577	1.3817856903	2.3351294042	2.0273373347	2.6883765624	3.4143820298	2.4435377098	2.7800814639	2.4384219855	2.8439123538	3.7246565772
0.9365498867	1.3809459645	2.3355992047	2.0298052125	2.6919013295	3.4238196032	2.4496921875	2.7459527421	2.4333710759	3.0023167092	3.8970067495
0.9343289425	1.3800682653	2.3360345224	2.032330403	2.6954046612	3.4333165303	2.456117858	2.7113027115	2.4293955393	3.1438179921	4.0489074408
0.9320711125	1.3791526776	2.3364344241	2.0349119515	2.6988837758	3.4428634194	2.4628046271	2.6762281422	2.4265503652	3.2618670059	4.1740831948
0.9297764859	1.3781992873	2.3367979622	2.0375488904	2.7023358348	3.4524507351	2.4697416578	2.6408307561	2.424883058	3.3507766428	4.2670457845
0.9274451533	1.3772081822	2.3371241752	2.0402402391	2.7057579407	3.4620688019	2.4769173705	2.605216416	2.4244321853	3.4061475836	4.3234969891
0.9250772068	1.3761794511	2.3374120877	2.0429850039	2.7091471353	3.471707808	2.4843194434	2.5694942507	2.4252260493	3.4252138052	4.3406566689
0.9226727399	1.3751131845	2.3376607105	2.0457821776	2.7125003975	3.4813578095	2.4919348163	2.5337757238	2.4272815176	3.407068906	4.3174789637
0.9202318474	1.3740094744	2.3378690409	2.0486307395	2.7158146413	3.4910087344	2.4997496957	2.4981736596	2.4306030487	3.3527462322	4.2547312016
0.9177546257	1.3728684142	2.338036063	2.0515296549	2.7190867137	3.5006503875	2.5077495622	2.4628012353	2.4351819447	3.2651420599	4.154926031
0.9152411726	1.3716900986	2.3381607476	2.0544778752	2.7223133923	3.5102724551	2.5159191805	2.4277709548	2.4409958572	3.1487892404	4.0221149366
0.9126915874	1.3704746238	2.3382420525	2.0574743375	2.7254913827	3.5198645099	2.5242426112	2.3931936158	2.4480085702	3.0095059599	3.8615678422
0.9101059707	1.3692220874	2.338278923	2.0605179644	2.7286173165	3.5294160163	2.5327032261	2.3591772837	2.456170074	2.853957911	3.6793762355
0.9074844245	1.3679325887	2.3382702915	2.063607664	2.7316877485	3.5389163363	2.5412837245	2.3258262869	2.4654169398	2.6891802272	3.4820242268
0.9048270525	1.366606228	2.3382150783	2.0667423293	2.734699154	3.5483547347	2.5499661537	2.2932402473	2.4756729932	2.5221070368	3.275972285
0.9021339594	1.3652431073	2.3381121917	2.0699208383	2.7376479265	3.5577203858	2.5587319315	2.2615131577	2.4868502792	2.3591516663	3.0672924908
0.8994052516	1.3638433299	2.3379605279	2.0731420535	2.7405303744	3.5670023791	2.5675618715	2.2307325209	2.4988503	2.2058706582	2.861383464
0.8966410368	1.3624070005	2.3377589718	2.0764048222	2.7433427185	3.5761897265	2.5764362122	2.2009785608	2.5115654999	2.0667318354	2.6627798855
0.8938414242	1.3609342253	2.3375063967	2.0797079754	2.7460810891	3.5852713684	2.5853346482	2.1723235179	2.5248809625	1.9449929162	2.4750581492
0.8910065242	1.3594251118	2.337201665	2.0830503286	2.7487415231	3.5942361813	2.5942363662	2.1448310366	2.5386762787	1.8426846985	2.3008282977
0.8881364488	1.357879769	2.3368436281	2.0864306808	2.7513199608	3.6030729845	2.603120083	2.118555656	2.5528275374	1.7606831443	2.1417944693
0.8852313113	1.3562983071	2.3364311271	2.0898478147	2.753812243	3.6117705481	2.6119640885	2.0935424076	2.5672093859	1.6988486039	1.9988622436
0.8822912264	1.3546808379	2.3359629927	2.0933004965	2.756214108	3.6203176006	2.6207462919	2.0698265277	2.5816971055	1.6562080519	1.8722712663
0.8793163102	1.3530274745	2.3354380458	2.0967874752	2.7585211883	3.6287028362	2.6294442726	2.0474332871	2.5961686447	1.6311570652	1.7617345205
0.87630668	1.3513383313	2.3348550975	2.1003074831	2.7607290077	3.6369149238	2.6380353348	2.02637794	2.6105065548	1.6216615341	1.6665703644
0.8732624548	1.3496135242	2.3342129496	2.1038592352	2.7628329781	3.6449425145	2.6464965682	2.0066657939	2.6245997747	1.6254437505	1.5858187473
0.8701837547	1.3478531705	2.3335103951	2.1074414289	2.7648283967	3.6527742505	2.654804912	1.9882923969	2.6383452175	1.6401426457	1.5183378284
0.8670707012	1.3460573886	2.3327462182	2.1110527441	2.7667104421	3.6603987734	2.6629372257	1.9712438426	2.6516491165	1.6634428027	1.4628809125
0.8639234172	1.3442262985	2.3319191948	2.1146918429	2.7684741724	3.6678047332	2.6708703649	1.9554971868	2.664428097	1.6931709401	1.4181559306
0.860742027	1.3423600215	2.331028093	2.1183573694	2.7701145211	3.674980797	2.6785812639	1.9410209709	2.6766099498	1.7273616189	1.3828707246
0.8575266562	1.3404586803	2.330071673	2.1220479495	2.771626295	3.681915658	2.6860470238	1.9277758472	2.6881340924	1.7642959127	1.3557674347
0.8542774317	1.3385223988	2.329048688	2.1257621908	2.7730041709	3.6885980446	2.693245009	1.9157152977	2.6989517117	1.8025178167	1.3356487334
0.8509944818	1.3365513023	2.3279578844	2.1294986824	2.774242693	3.6950167298	2.7001529505	1.9047864388	2.7090255973	1.8408334431	1.3213978483
0.8476779361	1.3345455175	2.326798002	2.1332559946	2.7753362701	3.7011605402	2.7067490575	1.8949309046	2.7183296808	1.8782977825	1.3119935563
0.8443279255	1.3325051724	2.3255677748	2.1370326791	2.7762791734	3.7070183653	2.7130121376	1.8860858	2.7268483067	1.9141932088	1.3065207514
0.8409445823	1.3304303963	2.3242659308	2.1408272686	2.7770655338	3.7125791673	2.7189217268	1.8781847149	2.7345752731	1.9480031491	1.3041768621
0.83752804	1.3283213197	2.3228911932	2.1446382767	2.7776893401	3.7178319901	2.7244582294	1.8711587905	2.7415126818	1.9793835551	1.3042742765
0.8340784336	1.3261780747	2.32144228	2.1484641977	2.7781444367	3.7227659687	2.7296030682	1.8649378321	2.7476696521	2.0081340902	1.3062389803
0.8305958992	1.3240007945	2.3199179053	2.152303507	2.7784245221	3.7273703393	2.734338847	1.8594514572	2.7530609507	2.0341703292	1.3096057342
0.8270805743	1.3217896137	2.3183167789	2.15615466	2.7785231474	3.7316344479	2.7386495246	1.8546302745	2.7577056007	2.0574977775	1.3140102569
0.8235325976	1.319544668	2.3166376074	2.1600160931	2.7784337151	3.7355477606	2.7425206025	1.8504070857	2.7616255333	2.0781881454	1.3191789785
0.8199521093	1.3172660946	2.3148790945	2.1638862229	2.7781494782	3.7390998724	2.7459393262	1.8467181043	2.7648443496	2.0963580578	1.3249169787
0.8163392507	1.314954032	2.3130399412	2.1677634463	2.7776635398	3.7422805171	2.7488949009	1.8435041866	2.7673862621	2.1121502017	1.3310946933
0.8126941644	1.3126086198	2.3111188465	2.1716461406	2.7769688528	3.7450795766	2.7513787234	1.8407120679	2.7692752872	2.1257168174	1.3376338864
0.8090169944	1.310229999	2.3091145081	2.1755326633	2.7760582205	3.7474870901	2.7533846292	1.8382956025	2.7705347603	2.1372053828	1.3444932421
0.8053078857	1.3078183119	2.3070256226	2.1794213521	2.7749242971	3.7494932639	2.7549091574	1.8362170001	2.7711872447	2.1467463269	1.351653755
0.8015669849	1.305373702	2.304850886	2.1833105249	2.7735595889	3.7510884804	2.7559518324	1.8344480566	2.7712549075	2.1544426213	1.3591038949
0.7977944395	1.302896314	2.3025889945	2.1871984798	2.7719564563	3.7522633079	2.7565154641	1.8329713739	2.7707604277	2.1603611312	1.3668243215
0.7939903986	1.300386294	2.3002386446	2.1910834949	2.7701071162	3.7530085094	2.7566064654	1.8317815649	2.7697285024	2.1645256607	1.3747717338
0.7901550124	1.2978437892	2.2977985343	2.1949638286	2.7680036446	3.7533150523	2.756235189	1.8308864379	2.7681880057	2.1669116995	1.3828612912
0.7862884321	1.2952689482	2.295267363	2.1988377197	2.7656379806	3.7531741179	2.7554162814	1.8303081541	2.7661748428	2.167442973	1.3909469657
0.7823908106	1.2926619206	2.2926438323	2.2027033869	2.7630019308	3.7525771107	2.7541690545	1.8300843509	2.7637355277	2.1659900138	1.3987992413
0.7784623016	1.2900228574	2.2899266466	2.2065590296	2.7600871738	3.7515156677	2.7525178741	1.8302692222	2.7609314853	2.1623711327	1.4060798234
0.7745030602	1.2873519109	2.2871145138	2.2104028273	2.7568852671	3.7499816682	2.7504925623	1.8309345422	2.757844051	2.1563563609	1.4123135652
0.7705132428	1.2846492344	2.2842061454	2.2142329402	2.7533876531	3.7479672434	2.7481288132	1.8321706209	2.7545801004	2.1476752057	1.4168587458
0.7664930068	1.2819149826	2.2812002579	2.2180475088	2.7495856669	3.7454647862	2.7454686181	1.8340871731	2.7512781965	2.1360294273	1.4188782611
0.762442511	1.2791493112	2.2780955724	2.2218446547	2.7454705455	3.7424669609	2.7425606964	1.8368140797	2.748115087	2.1211125487	1.4173163007
0.7583619153	1.2763523774	2.2748908161	2.2256224802	2.7410334367	3.7389667141	2.7394609271	1.8405020187	2.7453123229	2.1026385229	1.4108877589
0.7542513807	1.2735243392	2.2715847224	2.2293790684	2.7362654103	3.734957284	2.7362327765	1.8453229355	2.7431427054	2.0803829547	1.3980910944
0.7501110696	1.2706653561	2.2681760316	2.2331124838	2.7311574701	3.7304322122	2.7329477113	1.8514703215	2.7419361998	2.0542415767	1.3772598592
0.7459411454	1.2677755886	2.2646634916	2.2368207723	2.7257005665	3.7253853539	2.7296855923	1.8591592614	2.7420848871	2.0243123101	1.3466742592
0.7417417727	1.2648551986	2.2610458587	2.2405019612	2.7198856112	3.7198108896	2.7265350346	1.8686262094	2.7440464573	1.9910090833	1.3047629843
0.7375131174	1.2619043488	2.2573218976	2.2441540597	2.7137034924	3.713703337	2.7235937241	1.8801284459	2.7483456852	1.9552172546	1.2504387762
0.7332553462	1.2589232034	2.2534903831	2.2477750592	2.7071450924	3.7070575631	2.720968674	1.8939431636	2.7555732633	1.9185011197	1.183630216
0.7289686274	1.2559119276	2.2495500995	2.251362933	2.7002013053	3.699868797	2.7187764064	1.9103661297	2.7663812963	1.8833719211	1.1060959639
0.7246531302	1.2528706878	2.2454998424	2.2549156374	2.692863057	3.6921326433	2.7171430379	1.9297098649	2.7814746767	1.8536171359	1.0226272412
0.7203090249	1.2497996513	2.2413384185	2.2584311113	2.6851213268	3.6838450965	2.7162042496	1.9523012798	2.801597447	1.8346741305	0.9427324751
0.715936483	1.246698987	2.2370646469	2.2619072769	2.67696717	3.6750025552	2.7161051158	1.9784787084	2.8275130994	1.8339973999	0.8827931998
0.7115356772	1.2435688645	2.2326773592	2.26534204	2.6683917428	3.6656018376	2.7169997661	2.00858828	2.8599775555	1.8613117012	0.868371302
0.7071067812	1.2404094547	2.2281754007	2.26873329	2.6593863279	3.6556401984	2.7190508521	2.0429795729	2.8997033079	1.928558993	0.9356858874
0.7026499698	1.2372209296	2.2235576307	2.2720789009	2.6499423632	3.6451153452	2.7224287869	2.0820005019	2.947312912	2.049240264	1.1301843191
0.698165419	1.2340034624	2.2188229233	2.2753767312	2.6400514706	3.6340254574	2.7273107264	2.1259913988	3.0032797596	2.236751325	1.4989027235
0.6936533058	1.2307572271	2.2139701682	2.2786246245	2.6297054882	3.6223692043	2.7338792577	2.1752782588	3.0678539714	2.501281603	2.0731429595
0.6891138084	1.227482399	2.2089982712	2.2818204097	2.6188965032	3.6101457661	2.7423207604	2.2301651443	3.1409715388	2.8450096918	2.8412830114
0.6845471059	1.2241791547	2.2039061549	2.2849619019	2.6076168871	3.5973548545	2.7528234087	2.2909257549	3.222145876	3.2558605233	3.7205813821
0.6799533787	1.2208476714	2.1986927596	2.2880469025	2.5958593326	3.5839967351	2.7655747811	2.3577942038	3.3103432013	3.7011404011	4.5493009905
0.6753328081	1.2174881276	2.1933570437	2.2910731999	2.5836168925	3.5700722508	2.7807590503	2.4309550661	3.4038472587	4.1239027261	5.1238989961
0.6706855765	1.2141007031	2.1878979847	2.2940385698	2.5708830206	3.5555828466	2.7985537295	2.5105328051	3.5001254739	4.4464149443	5.2826579916
0.6660118674	1.2106855784	2.1823145796	2.296940776	2.5576516142	3.5405305948	2.8191259593	2.5965807171	3.5957181739	4.5853642021	4.9902368349
0.6613118653	1.2072429351	2.1766058457	2.2997775706	2.5439170587	3.5249182226	2.8426283291	2.6890695835	3.6861848936	4.4806222125	4.3549942464
0.6565857558	1.203772956	2.1707708214	2.3025466949	2.5296742739	3.5087491398	2.8691942366	2.7878762638	3.7661557469	4.1320968217	3.5626885117
0.6518337253	1.2002758249	2.1648085668	2.30524588	2.5149187622	3.4920274682	2.8989328087	2.8927725085	3.8295481062	3.6286393259	2.794737479
0.6470559616	1.1967517265	2.1587181644	2.307872847	2.4996466584	3.4747580724	2.93192342	3.0034143241	3.8700134649	3.1451642352	2.2030328648
0.6422526532	1.1932008466	2.1524987196	2.3104253081	2.4838547818	3.4569465908	2.9682098698	3.1193322645	3.8816675779	2.889153035	1.925901259
0.6374239897	1.1896233721	2.1461493618	2.3129009672	2.4675406892	3.4385994689	3.0077942997	3.2399230642	3.8601184629	3.0028302498	2.0822505478
0.6325701619	1.1860194907	2.1396692448	2.3152975201	2.4507027297	3.4197239929	3.0506309621	3.3644430662	3.8037333167	3.4654245996	2.7266493177
0.6276913613	1.1823893912	2.1330575474	2.3176126557	2.4333401016	3.4003283238	3.0966199782	3.4920039156	3.7149770964	4.0639413157	3.7696499127
0.6227877805	1.1787332635	2.1263134744	2.3198440566	2.4154529093	3.3804215334	3.1456012515	3.6215710026	3.6015293552	4.4782899827	4.8510414685
0.6178596131	1.1750512984	2.1194362569	2.3219893998	2.3970422229	3.3600136403	3.1973487367	3.7519651286	3.4767817735	4.4536607884	5.3582682652
0.6129070537	1.1713436875	2.1124251532	2.3240463571	2.3781101379	3.3391156463	3.2515652896	3.8818678407	3.359297259	3.9571946673	4.9224000414
0.6079302977	1.1676106236	2.1052794496	2.3260125967	2.358659836	3.3177395736	3.3078783501	4.0098308261	3.27093616	3.2080567012	3.9085304107
0.6029295417	1.1638523004	2.0979984606	2.3278857829	2.338695647	3.2958985025	3.3658367341	4.134289682	3.2336582023	2.553891368	3.0786174386
0.5979049831	1.1600689124	2.09058153	2.3296635779	2.3182231102	3.2736066078	3.4249088212	4.2535822683	3.2654499287	2.2794023769	2.95600844
0.5928568202	1.1562606554	2.0830280312	2.3313436421	2.2972490375	3.2508791967	3.4844824331	4.3659717209	3.37627202	2.4762165607	3.4630068264
0.5877852523	1.1524277257	2.0753373683	2.3329236349	2.2757815752	3.2277327446	3.5438666897	4.4696740429	3.5651669557	3.042877066	3.6076407265
0.5826904797	1.1485703208	2.0675089761	2.3344012158	2.253830266	3.2041849315	3.6022961092	4.5628900139	3.8195328877	3.7826950721	2.9834435735
0.5775727034	1.1446886391	2.0595423213	2.3357740452	2.231406111	3.180254676	3.6589371839	4.6438409565	4.1170081459	4.514134916	4.0966348881
0.5724321256	1.1407828797	2.0514369029	2.3370397853	2.2085216296	3.1559621691	3.7128976065	4.7108076947	4.4295850934	5.1305154518	6.1225845555
0.5672689491	1.136853243	2.0431922524	2.3381961007	2.1851909192	3.1313289054	3.7632382523	4.7621718286	4.7288133584	5.6007793383	5.5023924957
0.5620833779	1.1328999298	2.0348079354	2.33924066	2.161429713	3.1063777125	3.8089879283	4.7964582494	4.9906012179	5.9388832115	4.9437281636
0.5568756165	1.1289231423	2.026283551	2.340171136	2.1372554352	3.0811327776	3.849160795	4.8123776429	5.1983374808	6.1707444902	5.9467592945
0.5516458706	1.1249230831	2.0176187332	2.3409852073	2.112687255	3.0556196713	3.8827762418	4.808867582	5.3437134218	6.311435753	6.9137156171
0.5463943467	1.120899956	2.0088131512	2.3416805585	2.0877461367	3.0298653679	3.9088808663	4.785130712	5.4253997148	6.3520784324	7.2592328993
0.5411212521	1.1168539656	1.9998665099	2.3422548823	2.0624548867	3.0038982615	3.9265720662	4.7406684907	5.4462932153	6.2544026915	7.2070519215
0.535826795	1.1127853173	1.9907785505	2.3427058792	2.0368381973	2.9777481785	3.9350226214	4.6753089708	5.4102347211	5.9594777298	6.824643979
0.5305111843	1.1086942172	1.981549051	2.3430312596	2.0109226854	2.9514463835	3.9335055147	4.5892272122	5.318987757	5.4267863168	5.9044557378
0.52517463	1.1045808726	1.9721778269	2.3432287441	1.984736927	2.9250255818	3.921418136	4.4829570902	5.1700895478	4.7114379076	4.3262704722
0.5198173426	1.1004454913	1.9626647313	2.3432960651	1.9583114864	2.8985199141	3.8983049374	4.3573935133	4.9561669346	4.0365607191	3.0424009228
0.5144395338	1.0962882821	1.9530096557	2.3432309674	1.9316789392	2.8719649453	3.8638775681	4.2137843934	4.6665208165	3.7401476353	4.0118956971
0.5090414158	1.0921094546	1.9432125304	2.3430312094	1.9048738889	2.8453976467	3.8180315226	4.0537120828	4.2919991117	3.9924043473	4.5728317383
0.5036232016	1.087909219	1.9332733251	2.3426945643	1.8779329771	2.818856369	3.7608583949	3.8790644201	3.8338159278	4.4440010744	3.5962413663
0.4981851053	1.0836877867	1.9231920489	2.342218821	1.8508948855	2.7923808087	3.6926529422	3.691995967	3.3152404515	4.3087068236	5.1720646454
0.4927273415	1.0794453695	1.9129687512	2.3416017853	1.8238003306	2.7660119642	3.6139143264	3.4948804582	2.7916122079	3.1553585509	2.2920899587
0.4872501257	1.0751821801	1.902603522	2.340841281	1.7966920485	2.7397920832	3.5253411185	3.2902559029	2.3501808593	1.6662417917	2.6655909147
0.4817536741	1.070898432	1.8920964919	2.3399351509	1.7696147723	2.7137646002	3.4278199037	3.0807641345	2.0905007615	1.1459448522	1.1225809327
0.4762382037	1.0665943396	1.881447833	2.3388812581	1.7426151979	2.6879740627	3.3224076133	2.8690868916	2.0832335569	2.0112811506	1.9443619246
0.4707039322	1.0622701178	1.8706577592	2.3376774868	1.7157419411	2.6624660474	3.2103080047	2.6578807054	2.3210237505	3.2074745735	4.1852914207
0.4651510781	1.0579259825	1.859726526	2.3363217439	1.6890454826	2.6372870644	3.0928430068	2.4497129448	2.6910546949	3.4787448106	3.0542852725
0.4595798606	1.05356215	1.8486544314	2.3348119597	1.6625781032	2.6124844494	2.9714199148	2.2470013406	2.9988514888	2.7924818796	2.0369622129
0.4539904997	1.0491788376	1.837441816	2.3331460891	1.6363938057	2.5881062436	2.8474956498	2.0519591491	3.0469321873	2.0887458169	1.5508300092
0.4483832161	1.0447762632	1.8260890632	2.331322113	1.610548226	2.5642010619	2.7225394626	1.8665478602	2.7321375094	1.9866704607	1.3541044888
0.442758231	1.0403546456	1.8145965995	2.3293380392	1.5850985308	2.5408179465	2.5979955617	1.6924389924	2.1034904748	2.2195915522	2.2741367033
0.4371157667	1.0359142041	1.802964895	2.3271919037	1.5601033034	2.5180062091	2.475247156	1.5309860908	1.3419947898	2.1858105149	3.1662750075
0.4314560457	1.0314551586	1.791194463	2.3248817715	1.5356224154	2.4958152592	2.3555833389	1.3832075663	0.6739433437	1.6437547675	0.8591444112
0.4257792916	1.0269777301	1.7792858609	2.3224057382	1.5117168856	2.4742944188	2.2401700909	1.249780522	0.2707757933	0.8276415628	1.826191548
0.4200857284	1.0224821398	1.7672396899	2.3197619309	1.488448726	2.4534927246	2.1300264609	1.1310452319	0.1901193484	0.1277233751	1.0366556736
0.414375581	1.0179686098	1.7550565952	2.3169485094	1.4658807731	2.4334587169	2.0260067151	1.0270194969	0.3787910095	-0.2140467717	0.5495379119
0.4086490747	1.0134373629	1.7427372665	2.3139636672	1.4440765066	2.4142402156	1.928788932	0.9374217287	0.7200053973	-0.1832797479	-1.1072902896
0.4029064357	1.0088886225	1.7302824376	2.3108056329	1.4230998546	2.395884084	1.8388702059	0.8617013256	1.0900945172	0.09045814	0.3450076074
0.3971478906	1.0043226126	1.7176928869	2.307472671	1.403014985	2.3784359806	1.7565682999	0.7990747077	1.3978222558	0.4477965479	1.3091075773
0.3913736668	0.9997395578	1.7049694371	2.3039630834	1.383886085	2.3619400999	1.682029313	0.7485652961	1.5978513072	0.7698597003	0.6082418048
0.3855839923	0.9951396834	1.6921129556	2.30027521	1.3657771266	2.3464389023	1.6152406797	0.7090457277	1.684455914	0.9968701684	0.3665562334
0.3797790955	0.9905232153	1.6791243542	2.2964074304	1.3487516214	2.3319728349	1.556048647	0.6792807078	1.6765632637	1.116509049	0.523652305
0.3739592057	0.9858903801	1.6660045892	2.2923581647	1.332872363	2.3185800431	1.5041792582	0.6579690801	1.6030071385	1.1436802347	0.9516162358
0.3681245527	0.9812414047	1.6527546617	2.2881258746	1.3182011589	2.3062960759	1.4592618284	0.6437839429	1.492273098	1.1035741933	1.5574760133
0.3622753667	0.9765765168	1.6393756168	2.2837090643	1.3047985524	2.295153584	1.4208539185	0.635409917	1.3672950392	1.0214287576	1.9608739377
0.3564118787	0.9718959448	1.6258685442	2.2791062821	1.2927235356	2.2851820143	1.3884668876	0.6315769696	1.2440214197	0.9180106836	1.842975577
0.3505343202	0.9671999174	1.6122345779	2.274316121	1.2820332537	2.2764073014	1.3615912214	0.6310904884	1.1321051477	0.808625041	1.296318345
0.3446429232	0.962488664	1.5984748958	2.2693372197	1.2727827036	2.2688515581	1.3397209782	0.6328575634	1.0364314263	0.7037703669	0.6392185324
0.3387379202	0.9577624146	1.58459072	2.2641682642	1.2650244257	2.2625327664	1.3223768461	0.6359096495	0.9587215303	0.6102776583	0.1040058312
0.3328195445	0.9530213995	1.5705833161	2.2588079881	1.2588081923	2.2574644726	1.3091274525	0.6394219414	0.898871263	0.5323865651	-0.244658576
0.3268880297	0.9482658499	1.5564539936	2.2532551742	1.2541806927	2.2536554868	1.2996086878	0.6427298758	0.8559386999	0.472587789	-0.4391738951
0.3209436098	0.9434959972	1.542204105	2.247508655	1.2511852181	2.2511095906	1.2935408934	0.6453431825	0.8288170597	0.4322310879	-0.5340267835
0.3149865197	0.9387120734	1.5278350461	2.2415673142	1.249861346	2.2498252549	1.2907438041	0.6469578304	0.8166661751	0.4119436131	-0.5705095496
0.3090169944	0.9339143111	1.5133482556	2.2354300871	1.2502446275	2.249795371	1.2911491217	0.6474660567	0.8191712423	0.4118941823	-0.5676448011
0.3030352696	0.9291029433	1.4987452143	2.229095962	1.2523662791	2.2510069967	1.2948105315	0.6469644404	0.8366750058	0.4319191994	-0.5211252804
0.2970415816	0.9242782036	1.4840274456	2.2225639808	1.2562528802	2.2534411212	1.3019108539	0.6457596863	0.8702002955	0.471512444	-0.4018110163
0.2910361668	0.9194403259	1.4691965144	2.2158332399	1.2619260789	2.2570724516	1.3127658614	0.6443714556	0.9213459664	0.5296718716	-0.155696545
0.2850192625	0.9145895447	1.4542540272	2.2089028914	1.2694023084	2.2618692232	1.3278241039	0.643531226	0.9919983377	0.6045804524	0.2794068695
0.278991106	0.9097260949	1.4392016315	2.2017721437	1.2786925154	2.2677930372	1.34766189	0.6441758334	1.0837496564	0.6930657486	0.910624519
0.2729519355	0.9048502118	1.4240410152	2.1944402622	1.2898019031	2.2747987288	1.3729724001	0.6474340722	1.1968597295	0.7897433397	1.571808681
0.2669019893	0.8999621313	1.4087739066	2.1869065704	1.3027296908	2.2828342685	1.4045477957	0.6546045706	1.3285628153	0.885750825	1.878867912
0.2608415063	0.8950620895	1.3934020736	2.1791704504	1.3174688922	2.2918406992	1.4432531762	0.6671231506	1.4705809566	0.9671330477	1.5328415656
0.2547707257	0.8901503232	1.377927323	2.1712313439	1.3340061146	2.3017521123	1.48999137	0.6865181023	1.6060043158	1.0134252066	0.8037449514
0.2486898872	0.8852270694	1.3623515005	2.1630887527	1.3523213812	2.3124956655	1.5456578637	0.7143522754	1.7064633907	0.9979814268	0.2709404241
0.2425992308	0.8802925655	1.3466764898	2.1547422396	1.3723879775	2.3239916449	1.6110857174	0.7521516675	1.7319297543	0.8930393055	0.0699664503
0.236498997	0.8753470494	1.3309042119	2.1461914288	1.3941723257	2.3361535732	1.6869810949	0.8013212625	1.6372772687	0.6834669701	0.2950752521
0.2303894267	0.8703907593	1.3150366251	2.1374360071	1.4176338865	2.3488883675	1.7738510494	0.8630502261	1.3904377088	0.3910288924	1.273998818
0.2242707609	0.8654239339	1.2990757234	2.1284757235	1.4427250924	2.3620965466	1.871926409	0.9382101152	1.0033099613	0.1018936766	-0.1583992161
0.2181432414	0.860446812	1.283023537	2.1193103909	1.4693913119	2.3756724921	1.9810839091	1.0272513937	0.5649032309	-0.0269069348	-0.2722046049
0.2120071099	0.855459633	1.2668821306	2.1099398859	1.4975708477	2.3895047619	2.100773001	1.1301050877	0.2485779502	0.1810221164	1.1778772508
0.2058626088	0.8504626366	1.2506536035	2.1003641496	1.5271949693	2.4034764592	2.2299538411	1.2460976583	0.2579621591	0.7978903664	1.7976253402
0.1997099805	0.8454560627	1.2343400882	2.090583188	1.558187981	2.4174656569	2.3670536505	1.3738878754	0.7061971941	1.6622406725	0.7730420973
0.1935494681	0.8404401516	1.2179437504	2.0805970724	1.5904673266	2.4313458764	2.5099487099	1.5114344395	1.494808141	2.3913449914	2.8316417031
0.1873813146	0.8354151441	1.2014667875	2.0704059402	1.6239437317	2.4449866234	2.6559785496	1.6560021171	2.3105028912	2.6219982856	3.5846540604
0.1812057636	0.830381281	1.1849114285	2.0600099945	1.6585213823	2.4582539762	2.8019972888	1.8042121603	2.7961356161	2.318124554	1.4414765664
0.175023059	0.8253388036	1.1682799326	2.0494095053	1.6940981425	2.4710112291	2.9444645651	1.9521397813	2.7857657777	1.8190694039	0.9740339876
0.1688334447	0.8202879533	1.1515745889	2.0386048091	1.7305658087	2.4831195854	3.0795751826	2.0954576339	2.4005994601	1.5375107893	2.5022278209
0.1626371652	0.815228972	1.1347977153	2.0275963099	1.767810402	2.4944389012	3.2034227689	2.2296199373	1.9253703451	1.6265455341	0.7775145354
0.156434465	0.8101621018	1.1179516575	2.0163844785	1.8057124962	2.5048284739	3.3121887599	2.350077526	1.5968333603	1.9482237427	1.7926362104
0.1502255891	0.8050875849	1.1010387885	2.0049698537	1.8441475826	2.5141478746	3.4023444196	2.4525102703	1.4879534116	2.2850283705	2.7618695431
0.1440107826	0.8000056639	1.0840615075	1.9933530417	1.8829864684	2.5222578177	3.4708508872	2.533060539	1.5359089212	2.5149018644	2.7227009916
0.1377902907	0.7949165816	1.0670222389	1.9815347166	1.9220957088	2.5290210659	3.5153408903	2.5885501601	1.6326083525	2.6276265905	2.2651981627
0.1315643591	0.7898205811	1.0499234317	1.9695156203	1.96133807	2.5343033623	3.5342661297	2.6166639961	1.692735477	2.6605285413	1.9924415114
0.1253332336	0.7847179055	1.0327675581	1.9572965628	2.0005730224	2.5379743868	3.5269965357	2.6160858528	1.6788651974	2.64745387	2.0435314327
0.1190971601	0.7796087984	1.0155571129	1.9448784219	2.0396572599	2.5399087273	3.4938615023	2.5865768045	1.6046761957	2.6007178219	2.3988357175
0.1128563849	0.7744935034	0.9982946126	1.9322621434	2.0784452447	2.5399868618	3.4361284217	2.5289916361	1.5338012962	2.507986542	2.7281384373
0.1066111543	0.7693722644	0.9809825939	1.9194487409	2.116789774	2.5380961419	3.3559197605	2.445235279	1.5672506885	2.3395313876	2.3608036125
0.1003617149	0.7642453252	0.9636236133	1.9064392957	2.1545425648	2.5341317698	3.2560757968	2.3381670006	1.7965027348	2.0858528961	1.1092100567
0.0941083133	0.7591129303	0.9462202457	1.8932349567	2.1915548561	2.5279977629	3.1399752332	2.2114648493	2.219551863	1.8270833206	2.509409979
0.0878511966	0.7539753238	0.9287750836	1.8798369403	2.2276780225	2.5196078939	3.0113295622	2.0694657214	2.6756988173	1.7494599335	1.4101063318
0.0815906116	0.7488327504	0.9112907358	1.8662465299	2.2627641977	2.5088866002	2.8739688691	1.9169969277	2.8900494455	1.9905139049	0.9924067135
0.0753268055	0.7436854546	0.8937698268	1.8524650758	2.296666903	2.4957698527	2.731636566	1.7592131189	2.6466767003	2.3984064449	2.2271577635
0.0690600257	0.7385336812	0.8762149952	1.838493995	2.3292416783	2.4802059736	2.5878084894	1.6014481097	1.9655532709	2.5439919458	1.8456696129
0.0627905195	0.7333776752	0.8586288931	1.8243347706	2.3603467111	2.4621563959	2.4455482759	1.449085075	1.1168905909	2.1101717199	2.5162497903
0.0565185345	0.7282176814	0.8410141846	1.8099889518	2.3898434596	2.4415963535	2.307406499	1.3074417007	0.4504836479	1.238600798	1.6633553667
0.0502443182	0.7230539451	0.823373545	1.7954581527	2.4175972666	2.4185154939	2.1753663581	1.1816602884	0.1887018991	0.4029737241	1.3083272146
0.0439681183	0.7178867114	0.8057096599	1.780744053	2.4434779605	2.3929184042	2.0508343335	1.0765878383	0.3390657754	-0.0150348399	0.8794143902
0.0376901827	0.7127162256	0.7880252235	1.7658483963	2.467360439	2.3648250419	1.9346706481	0.9966290696	0.7506057904	0.0320486534	-0.9462411938
0.0314107591	0.707542733	0.770322938	1.7507729903	2.489125232	2.334271062	1.8272518837	0.9455573011	1.2300896152	0.3468998856	1.236903175
0.0251300954	0.7023664791	0.7526055124	1.7355197061	2.5086590411	2.3013080337	1.7285568024	0.9262748396	1.6309703851	0.7030951707	0.3498437258
0.0188484397	0.6971877094	0.7348756612	1.7200904774	2.5258552514	2.2660035396	1.6382662256	0.9405260709	1.8841613334	0.9883328815	0.0358145335
0.0125660399	0.6920066692	0.7171361034	1.7044872998	2.5406144115	2.2284411503	1.5558685318	0.9885819377	1.9857977424	1.2371734501	0.63072668
0.006283144	0.6868236043	0.6993895615	1.6887122303	2.5528446815	2.1887202709	1.4807636333	1.0689319033	1.969307891	1.5761534086	0.8941318721
1.22460635382238E-016	0.68163876	0.68163876	1.6727673866	2.562462243	2.1469558542	1.4123598887	1.1780356618	1.8803291765	2.0750872872	1.1158204133
-0.006283144	0.6764523821	0.6638864249	1.6566549461	2.5693916704	2.1032779774	1.3501599872	1.3101976939	1.7609559716	2.5583123347	1.6492792547
-0.0125660399	0.6712647161	0.6461352819	1.640377145	2.5735662609	2.057831281	1.2938331872	1.4576289827	1.6425393232	2.6292878173	2.2120007717
-0.0188484397	0.6660760075	0.6283880557	1.6239362781	2.5749283205	2.0107742692	1.2432722273	1.6107482934	1.5439738452	2.0799489546	2.24019004
-0.0251300954	0.660886502	0.6106474687	1.607334697	2.5734294059	1.962278472	1.1986336982	1.7587488837	1.4727805445	1.2269844479	1.7817612657
-0.0314107591	0.655696445	0.59291624	1.5905748099	2.569030518	1.9125274719	1.1603606549	1.8904169595	1.4274123694	0.6011073599	1.3591480622
-0.0376901827	0.6505060821	0.5751970842	1.5736590804	2.5617022497	1.8617157976	1.1291858596	1.9951409149	1.4001486624	0.4003972805	1.2545326565
-0.0439681183	0.6453156587	0.5574927102	1.5565900261	2.5514248841	1.8100476917	1.1061134106	2.0640039848	1.3804518158	0.4433094912	1.3528042409
-0.0502443182	0.6401254201	0.5398058202	1.5393702186	2.5381884441	1.7577357563	1.0923758567	2.0908178079	1.358781605	0.4830868943	1.4388043991
-0.0565185345	0.6349356118	0.5221391087	1.5220022813	2.5219926935	1.7049994872	1.0893634668	2.072940407	1.3307264363	0.4118598073	1.4033727606
-0.0627905195	0.629746479	0.5044952611	1.5044888891	2.5028470894	1.6520637044	1.0985224314	2.0117357107	1.3009791458	0.3033567798	1.3021998728
-0.0690600257	0.6245582669	0.4868769529	1.486832767	2.4807706865	1.5991568904	1.1212197308	1.9125738073	1.2860487876	0.397405625	1.3879414734
-0.0753268055	0.6193712204	0.4692868482	1.4690366888	2.4557919949	1.5465094489	1.1585745014	1.7843358437	1.3134339847	0.9341066582	1.9337523064
-0.0815906116	0.6141855847	0.4517275993	1.4511034762	2.4279487917	1.4943518969	1.2112591835	1.6384632816	1.4135155528	1.815085016	2.6248107883
-0.0878511966	0.6090016046	0.4342018448	1.4330359976	2.3972878889	1.4429130055	1.2792786041	1.4876634076	1.6006294642	2.5472641542	2.3692196709
-0.0941083133	0.6038195247	0.4167122093	1.4148371665	2.3638648589	1.3924179051	1.3617412439	1.3444373734	1.8461010681	2.7423416836	1.7456229899
-0.1003617149	0.5986395897	0.3992613017	1.3965099407	2.3277437195	1.3430861719	1.4566437669	1.2196235313	2.0611126305	2.4732002775	2.2748300415
-0.1066111543	0.5934620441	0.3818517146	1.3780573208	2.2889965825	1.2951299126	1.5606965639	1.121143797	2.1198690028	2.0032406109	2.1554896096
-0.1128563849	0.5882871322	0.364486023	1.3594823487	2.247703265	1.2487518669	1.6692233422	1.0531074522	1.934433478	1.4628423172	0.6437828256
-0.1190971601	0.583115098	0.3471667835	1.3407881065	2.2039508707	1.2041435449	1.7761701368	1.0153737466	1.5328742239	0.8897052037	1.1152796281
-0.1253332336	0.5779461856	0.3298965331	1.3219777154	2.15783334	1.1614834194	1.8742569388	1.0036129686	1.0570807269	0.3657609772	0.4250252845
-0.1315643591	0.5727806388	0.3126777882	1.3030543336	2.1094509752	1.1209351913	1.9552970424	1.0098458219	0.6653447695	-0.0008041842	-0.752398632
-0.1377902907	0.5676187012	0.2955130439	1.2840211556	2.0589099416	1.082646147	2.010694471	1.0233906191	0.4353013283	-0.1734905908	0.3318569623
-0.1440107826	0.5624606161	0.2784047725	1.2648814102	2.0063217501	1.0467456261	2.0321087085	1.0321107764	0.3609558853	-0.2091017779	0.6190809188
-0.1502255891	0.5573066267	0.2613554231	1.2456383597	1.9518027227	1.013343617	2.0122500652	1.0238317895	0.429469559	-0.1773956046	0.3578304186
-0.156434465	0.5521569761	0.2443674204	1.2262952978	1.8954734457	0.9825294966	1.9457413973	0.987785745	0.6885142873	-0.0630061104	-0.8987538344
-0.1626371652	0.5470119068	0.2274431636	1.2068555485	1.8374582134	0.9543709308	1.8299569144	0.9159405699	1.187481144	0.2399211889	0.9856989564
-0.1688334447	0.5418716616	0.2105850259	1.1873224646	1.7778844656	0.9289129487	1.6657314983	0.8040796465	1.6935205642	0.7352626567	0.0636780311
-0.175023059	0.5367364824	0.1937953534	1.1676994258	1.7168822234	0.9061772048	1.4578292083	0.6525153009	1.4971919162	1.064711916	1.4921223628
-0.1812057636	0.5316066115	0.177076464	1.1479898379	1.6545835249	0.886161439	1.2150711264	0.4663479421	0.2600111762	0.8052541803	1.8051966222
-0.1873813146	0.5264822903	0.1604306469	1.1281971306	1.5911218654	0.8688391442	0.9500517597	0.2552217569	-0.7440612672	0.2420138645	1.2114139084
-0.1935494681	0.5213637605	0.1438601618	1.1083247561	1.5266316444	0.8541594487	0.6784181563	0.0325767379	-0.2153098329	-0.0370948857	-0.9984434564
-0.1997099805	0.5162512632	0.1273672376	1.0883761879	1.4612476231	0.8420472178	0.4177416902	-0.1855481854	0.683306526	-0.1690709267	-0.98725557
-0.2058626088	0.5111450391	0.1109540722	1.0683549189	1.3951043944	0.8324033786	0.1860712851	-0.3820511653	0.4197818078	-0.4427799359	0.1406144931
-0.2120071099	0.5060453289	0.0946228312	1.0482644597	1.3283358681	0.825105467	0.0003091747	-0.5404858216	-0.5389399486	-0.7070583933	-0.615141281
-0.2181432414	0.5009523727	0.0783756477	1.0281083376	1.2610747752	0.8200083952	-0.1254132617	-0.6467742899	-1.2335460126	-0.8297467582	-1.7290137417
-0.2242707609	0.4958664105	0.0622146209	1.0078900942	1.1934521908	0.816945436	-0.1811689621	-0.6907190365	-1.4776657379	-0.8666349789	-1.3967901263
-0.2303894267	0.4907876818	0.0461418161	0.9876132847	1.1255970807	0.8157294164	-0.1623013612	-0.6671354214	-1.3924607136	-0.8889544935	-1.7661615654
-0.236498997	0.4857164259	0.0301592633	0.9672814755	1.0576358706	0.8161541112	-0.069987089	-0.5764699423	-0.9193071079	-0.8903191402	-0.1960940902
-0.2425992308	0.4806528815	0.0142689572	0.9468982431	0.9896920425	0.8179958257	0.0887798323	-0.4248316275	0.0046323635	-0.7162112422	-0.6884206397
-0.2486898872	0.4755972872	-0.0015271439	0.9264671724	0.9218857567	0.8210151525	0.301784606	-0.2234370198	0.7746494383	-0.167472342	-1.1653934311
-0.2547707257	0.4705498811	-0.0172271186	0.9059918552	0.8543335026	0.8249588892	0.5526985264	0.012458473	0.3816138314	0.450081825	1.2026212062
-0.2608415063	0.465510901	-0.032829083	0.8854758881	0.7871477785	0.8295620965	0.8225636934	0.2650093656	-0.5605686794	0.4330259762	0.6530308073
-0.2669019893	0.4604805841	-0.0483311912	0.8649228716	0.7204368007	0.8345502791	1.091481473	0.5154351541	-0.219640284	0.0822733349	-0.8859038733
-0.2729519355	0.4554591675	-0.0637316359	0.8443364081	0.6543042438	0.8396416687	1.3403143354	0.7456927898	1.1519793249	0.3329496997	0.921035956
-0.278991106	0.4504468876	-0.079028649	0.8237201005	0.5888490097	0.8445495868	1.5522207328	0.9399886715	1.9356786125	1.0385405637	0.2237899553
-0.2850192625	0.4454439806	-0.0942205019	0.8030775505	0.5241650292	0.8489848635	1.7138755397	1.0859855204	1.8408190356	1.5355080939	0.5367250611
-0.2910361668	0.4404506821	-0.1093055064	0.782412357	0.4603410916	0.8526582911	1.816277518	1.1756082064	1.5122896638	1.6939354558	2.0378100045
-0.2970415816	0.4354672274	-0.1242820146	0.7617281147	0.3974607064	0.8552830853	1.8551017062	1.2054081695	1.3541238955	1.6937878858	2.6573553229
-0.3030352696	0.4304938512	-0.1391484198	0.7410284124	0.3356019929	0.8565773329	1.8306098821	1.1764999196	1.4448968836	1.6313633044	2.3169407946
-0.3090169944	0.4255307879	-0.1539031566	0.7203168317	0.2748375995	0.8562663997	1.7471789149	1.0941279458	1.7298035476	1.4674295162	0.6516687331
-0.3149865197	0.4205782713	-0.1685447015	0.6995969451	0.2152346501	0.8540852765	1.6125398836	0.9669533285	1.9452507299	1.1232348409	0.3431094392
-0.3209436098	0.4156365348	-0.183071573	0.6788723147	0.1568547181	0.8497808393	1.4368380151	0.8061642364	1.5901153245	0.6286424974	0.5129879082
-0.3268880297	0.4107058113	-0.1974823323	0.6581464908	0.0997538263	0.843114003	1.2316251925	0.6245137521	0.4997801372	0.2107314257	0.3531572858
-0.3328195445	0.4057863333	-0.2117755833	0.6374230102	0.0439824704	0.8338617469	1.0088854882	0.4353746111	-0.5100052184	0.1694591047	0.087988159
-0.3387379202	0.4008783325	-0.2259499729	0.6167053949	-0.0104143324	0.8218189943	0.7801737117	0.2518773415	-0.4365190729	0.5463304393	0.047301186
-0.3446429232	0.3959820403	-0.2400041915	0.5959971506	-0.0633969748	0.806800327	0.5559216075	0.0861705028	0.440301437	0.8966949886	1.375930986
-0.3505343202	0.3910976877	-0.2539369728	0.575301765	-0.1149311686	0.7886415211	0.3449401373	-0.0511861812	0.9369939016	0.6591739293	0.0450922456
-0.3564118787	0.3862255049	-0.2677470945	0.554622707	-0.1649878358	0.7672008893	0.1541224766	-0.1517087336	0.5448660109	-0.1960263411	-0.323283748
-0.3622753667	0.3813657217	-0.2814333783	0.5339634245	-0.2135429822	0.7423604194	-0.0116668423	-0.2093846643	-0.2676857974	-1.1811085202	-2.1804848883
-0.3681245527	0.3765185673	-0.2949946897	0.5133273438	-0.2605775545	0.7140266997	-0.1495447042	-0.2210112237	-0.9009825447	-1.8385474641	-1.0695380678
-0.3739592057	0.3716842704	-0.3084299388	0.4927178676	-0.3060772836	0.6821316246	-0.258439824	-0.1865016738	-1.1479438361	-2.0030518821	-2.5713842959
-0.3797790955	0.366863059	-0.3217380798	0.4721383743	-0.3500325148	0.6466328768	-0.3388389506	-0.1091630115	-1.101559082	-1.666528809	-1.9869453551
-0.3855839923	0.3620551608	-0.3349181114	0.4515922161	-0.3924380266	0.6075141845	-0.3924852703	0.0040859888	-0.9202021261	-0.8977310795	-0.2073811999
-0.3913736668	0.3572608025	-0.3479690768	0.431082718	-0.4332928405	0.5647853529	-0.4220607601	0.1426300486	-0.7153317541	-0.0088849376	0.9040414558
-0.3971478906	0.3524802106	-0.3608900637	0.4106131764	-0.4726000216	0.5184820756	-0.4308779119	0.2923212397	-0.542166837	0.4571498322	0.5683278801
-0.4029064357	0.3477136108	-0.3736802044	0.3901868583	-0.5103664733	0.4686655291	-0.4225993219	0.4360341554	-0.4205412063	0.2562571291	-0.3234306064
-0.4086490747	0.3429612281	-0.3863386755	0.3698069995	-0.546602726	0.4154217588	-0.4009969483	0.5547518657	-0.3524598884	-0.2621258075	-1.1177902362
-0.414375581	0.338223287	-0.3988646984	0.3494768036	-0.5813227228	0.3588608658	-0.3697569537	0.6292717875	-0.3323376116	-0.646336642	-1.5581040253
-0.4200857284	0.3335000114	-0.4112575386	0.3291994413	-0.6145436012	0.2991160069	-0.3323312754	0.6425131629	-0.3533619017	-0.7356116792	-1.5884626707
-0.4257792916	0.3287916246	-0.4235165063	0.3089780484	-0.6462854748	0.2363422188	-0.2918335231	0.5822470894	-0.4115288932	-0.4722578409	-1.0951383042
-0.4314560457	0.324098349	-0.4356409554	0.2888157257	-0.6765712139	0.1707150833	-0.250974431	0.4438802962	-0.5066293532	0.1377803081	0.0361395978
-0.4371157667	0.3194204065	-0.4476302844	0.2687155371	-0.7054262268	0.102429248	-0.2120307556	0.2327519354	-0.6396787143	0.3183760286	0.9598972037
-0.442758231	0.3147580184	-0.4594839355	0.2486805089	-0.7328782441	0.0316968199	-0.1768410059	-0.0346884771	-0.8080997731	-0.9977310776	-0.0069932797
-0.4483832161	0.3101114052	-0.4712013947	0.2287136291	-0.7589571047	-0.0412543504	-0.1468215142	-0.3314015872	-1.0013264445	-1.9697639586	-1.6979989044
-0.4539904997	0.3054807869	-0.4827821915	0.2088178459	-0.7836945459	-0.1161824754	-0.1229968925	-0.6223232888	-1.1992691205	-0.921774398	-1.71276685
-0.4595798606	0.3008663825	-0.494225899	0.1889960669	-0.8071239982	-0.1928337103	-0.1060397149	-0.8689169556	-1.3746216185	-0.3768421924	-1.3003197836
-0.4651510781	0.2962684105	-0.505532133	0.1692511585	-0.829280385	-0.2709440852	-0.0963151635	-1.0351559647	-1.4983323084	-0.9421146298	-1.3633292378
-0.4707039322	0.2916870886	-0.5167005527	0.1495859445	-0.8501999285	-0.3502414722	-0.0939272899	-1.0939132964	-1.5464754219	-1.2829623615	-1.4283704469
-0.4762382037	0.287122634	-0.5277308594	0.1300032058	-0.8699199616	-0.430447569	-0.0987643936	-1.0324527931	-1.5064474839	-0.9379363424	-1.3145082986
-0.4817536741	0.2825752629	-0.5386227969	0.1105056793	-0.8884787472	-0.5112798797	-0.1105417667	-0.8557407547	-1.3807354101	-0.3807523162	-1.2895383824
-0.4872501257	0.2780451909	-0.549376151	0.091096057	-0.905915304	-0.5924536768	-0.1288406863	-0.5866691604	-1.1872308704	-1.1022457759	-1.8470223169
-0.4927273415	0.2735326327	-0.5599907491	0.0717769855	-0.922269241	-0.6736839263	-0.1531430363	-0.2629362316	-0.9559889722	-1.9482305812	-1.4278885093
-0.4981851053	0.2690378025	-0.5704664597	0.0525510653	-0.9375805991	-0.7546871626	-0.1828613282	0.0688998088	-0.7232397837	-0.3532955934	0.57796083
-0.5036232016	0.2645609136	-0.5808031925	0.0334208497	-0.9518897012	-0.8351832953	-0.21736417	0.3610082807	-0.5241438452	0.3910735596	0.3943439717
-0.5090414158	0.2601021784	-0.5910008975	0.0143888449	-0.9652370106	-0.9148973385	-0.2559974259	0.5719543074	-0.3860578626	-0.390213888	-1.1249282188
-0.5144395338	0.2556618087	-0.6010595649	-0.0045424914	-0.9776629975	-0.9935610475	-0.2981014292	0.672911352	-0.3238672029	-0.854561719	-1.7860159961
-0.5198173426	0.2512400155	-0.6109792245	-0.0233707499	-0.9892080143	-1.0709144536	-0.3430246765	0.6512855013	-0.3383174158	-0.764688945	-1.6611370131
-0.52517463	0.2468370089	-0.6207599454	-0.0420935709	-0.9999121793	-1.1467072888	-0.3901344539	0.511270069	-0.4174405748	-0.0937691067	-0.6885147427
-0.5305111843	0.2424529983	-0.6304018355	-0.0607086441	-1.0098152685	-1.2207002902	-0.4388248417	0.2715523619	-0.5403879754	0.4566290835	0.557193999
-0.535826795	0.2380881922	-0.6399050411	-0.0792137097	-1.0189566158	-1.2926663812	-0.4885225173	-0.0390394304	-0.682476695	-0.8955475007	-0.0802356824
-0.5411212521	0.2337427982	-0.649269746	-0.0976065583	-1.0273750215	-1.3623917214	-0.5386907406	-0.3868576908	-0.820146696	-1.669033325	-0.6906889985
-0.5463943467	0.2294170234	-0.6584961717	-0.1158850318	-1.035108669	-1.4296766249	-0.5888318621	-0.738625453	-0.9347786374	-0.1386639688	0.4858534465
-0.5516458706	0.2251110738	-0.6675845763	-0.1340470233	-1.0421950484	-1.4943363432	-0.6384886501	-1.0656294638	-1.0148007788	-0.6050113044	-0.4118524336
-0.5568756165	0.2208251544	-0.6765352543	-0.1520904778	-1.0486708888	-1.5562017128	-0.6872446901	-1.3464206356	-1.0560340596	-1.9570596772	-2.0100538917
-0.5620833779	0.2165594698	-0.6853485358	-0.1700133923	-1.0545720972	-1.6151196688	-0.7347240675	-1.5679149901	-1.0606331893	-1.7788564824	-1.8593830264
-0.5672689491	0.2123142232	-0.6940247863	-0.187813816	-1.059933705	-1.6709536259	-0.7805905095	-1.725102588	-1.03519608	-0.9719520437	-0.9000054312
-0.5724321256	0.2080896174	-0.7025644057	-0.205489851	-1.0647898206	-1.7235837296	-0.8245461283	-1.8197621616	-0.9886314441	-0.4373378584	-0.0931284179
-0.5775727034	0.2038858541	-0.7109678281	-0.2230396516	-1.0691735894	-1.7729069829	-0.8663298806	-1.8586393793	-0.9302493222	-0.2144705789	0.4310382931
-0.5826904797	0.1997031341	-0.7192355212	-0.2404614254	-1.0731171592	-1.8188372527	-0.9057158345	-1.851503187	-0.8683487009	-0.1805228569	0.6981585218
-0.5877852523	0.1955416573	-0.7273679853	-0.2577534328	-1.076651652	-1.8613051617	-0.9425113152	-1.8093890475	-0.8093890615	-0.3065658661	0.6830918729
-0.5928568202	0.1914016228	-0.735365753	-0.2749139875	-1.0798071412	-1.9002578732	-0.9765549838	-1.7432115947	-0.7576921952	-0.5955257055	0.3906889121
-0.5979049831	0.1872832287	-0.7432293888	-0.2919414561	-1.0826126341	-1.935658775	-1.0077148922	-1.6628137628	-0.7155422366	-0.9912272561	-0.0777861729
-0.6029295417	0.1831866722	-0.7509594881	-0.3088342586	-1.0850960593	-1.9674870704	-1.0358865438	-1.5764326997	-0.6835294592	-1.3683796661	-0.5494266946
-0.6079302977	0.1791121495	-0.7585566765	-0.3255908682	-1.0872842588	-1.9957372855	-1.0609909849	-1.4905100764	-0.6609997226	-1.6024723156	-0.8683279417
-0.6129070537	0.1750598561	-0.7660216097	-0.3422098111	-1.0892029842	-2.0204186988	-1.0829729409	-1.4097522812	-0.6465073416	-1.6414770965	-0.9690734368
-0.6178596131	0.1710299862	-0.7733549723	-0.3586896668	-1.0908768972	-2.0415547039	-1.1017990105	-1.3373464252	-0.6382090783	-1.5164733111	-0.881741182
-0.6227877805	0.1670227334	-0.7805574775	-0.3750290675	-1.0923295737	-2.0591821123	-1.1174559238	-1.2752520869	-0.6341712931	-1.3015632586	-0.6857363231
-0.6276913613	0.1630382901	-0.7876298661	-0.3912266986	-1.093583511	-2.0733504056	-1.1299488703	-1.2245085178	-0.6325868661	-1.0690029418	-0.4606937647
-0.6325701619	0.1590768478	-0.7945729063	-0.4072812979	-1.0946601384	-2.0841209457	-1.1392998972	-1.1855171327	-0.6319130462	-0.8668550709	-0.2617597223
-0.6374239897	0.1551385971	-0.8013873926	-0.4231916559	-1.0955798307	-2.0915661506	-1.1455463814	-1.1582763208	-0.6309477298	-0.718171208	-0.1176972204
-0.6422526532	0.1512237276	-0.8080741454	-0.4389566152	-1.0963619237	-2.0957686441	-1.1487395724	-1.1425586742	-0.6288623729	-0.6297497739	-0.03932779
-0.6470559616	0.1473324278	-0.8146340101	-0.4545750707	-1.0970247328	-2.0968203879	-1.1489432068	-1.1380296385	-0.6252071664	-0.6011871812	-0.0286063503
-0.6518337253	0.1434648852	-0.8210678567	-0.4700459689	-1.0975855728	-2.0948218026	-1.1462321922	-1.1443120426	-0.6199000811	-0.6304308136	-0.084241858
-0.6565857558	0.1396212865	-0.8273765789	-0.4853683077	-1.0980607798	-2.089880884	-1.140691359	-1.1610039448	-0.6132071175	-0.7153649766	-0.2032459738
-0.6613118653	0.1358018173	-0.8335610933	-0.5005411363	-1.0984657354	-2.0821123236	-1.132414278	-1.1876586434	-0.6057172503	-0.8520913404	-0.3790753141
-0.6660118674	0.132006662	-0.8396223393	-0.5155635547	-1.0988148904	-2.0716366369	-1.1215021421	-1.2237363052	-0.5983124683	-1.0309032501	-0.5974851846
-0.6706855765	0.1282360041	-0.8455612775	-0.530434713	-1.0991217921	-2.0585793058	-1.1080627098	-1.2685369334	-0.5921311019	-1.2315696803	-0.8318656332
-0.6753328081	0.1244900262	-0.8513788899	-0.5451538116	-1.09939911	-2.0430699417	-1.0922093088	-1.3211245846	-0.5885213186	-1.4206859659	-1.0409274359
-0.6799533787	0.1207689097	-0.8570761785	-0.5597201003	-1.0996586645	-2.0252414708	-1.0740598983	-1.3802528729	-0.5889812659	-1.5547019487	-1.1723919239
-0.6845471059	0.117072835	-0.8626541653	-0.574132878	-1.0999114546	-2.0052293495	-1.053736187	-1.4443017656	-0.5950828212	-1.5910644366	-1.1751898619
-0.6891138084	0.1134019813	-0.8681138908	-0.5883914922	-1.1001676868	-1.9831708094	-1.0313628069	-1.5112352525	-0.6083772464	-1.5053988442	-1.0183820587
-0.6936533058	0.109756527	-0.8734564141	-0.6024953387	-1.1004368042	-1.9592041383	-1.0070665401	-1.5785884646	-0.630283154	-1.3064456339	-0.7091649571
-0.698165419	0.1061366493	-0.8786828116	-0.6164438606	-1.1007275156	-1.9334679981	-0.980975597	-1.6434910318	-0.6619599087	-1.0380540105	-0.3000100815
-0.7026499698	0.1025425243	-0.8837941767	-0.6302365483	-1.1010478248	-1.9061007811	-0.9532189453	-1.7027308427	-0.7041726497	-0.7638954151	0.1196800593
-0.7071067812	0.0989743271	-0.8887916189	-0.6438729384	-1.1014050599	-1.8772400082	-0.9239256882	-1.7528589809	-0.7571581557	-0.5428861795	0.4427931672
-0.7115356772	0.0954322315	-0.8936762632	-0.6573526136	-1.1018059016	-1.847021768	-0.8932244891	-1.7903326693	-0.8205033284	-0.4108703316	0.5670288524
-0.715936483	0.0919164104	-0.8984492494	-0.6706752017	-1.102256413	-1.8155801999	-0.8612430437	-1.8116889515	-0.8930496714	-0.3793329272	0.4192199913
-0.7203090249	0.0884270357	-0.9031117315	-0.6838403754	-1.1027620669	-1.7830470186	-0.8281075957	-1.8137380144	-0.9728373408	-0.4494843487	-0.017978591
-0.7246531302	0.0849642778	-0.9076648768	-0.6968478512	-1.1033277744	-1.7495510836	-0.7939424964	-1.7937620352	-1.05710085	-0.6303353137	-0.6897201469
-0.7289686274	0.0815283064	-0.9121098655	-0.709697389	-1.1039579121	-1.7152180094	-0.7588698057	-1.749703638	-1.1423252286	-0.9450359808	-1.4853128214
-0.7332553462	0.0781192897	-0.9164478899	-0.7223887912	-1.1046563487	-1.68016982	-0.7230089341	-1.680327816	-1.2243665264	-1.4063222112	-2.2801471171
-0.7375131174	0.0747373952	-0.9206801536	-0.7349219025	-1.105426472	-1.6445246427	-0.6864763225	-1.585342628	-1.2986344768	-1.9469679553	-2.9450357266
-0.7417417727	0.0713827888	-0.9248078712	-0.7472966086	-1.1062712135	-1.6083964437	-0.6493851602	-1.4654670346	-1.3603285588	-2.339167676	-3.2921125748
-0.7459411454	0.0680556356	-0.9288322673	-0.7595128358	-1.1071930743	-1.5718948019	-0.6118451377	-1.3224385921	-1.4047124548	-2.2408629365	-3.080439469
-0.7501110696	0.0647560994	-0.9327545761	-0.7715705502	-1.1081941487	-1.5351247196	-0.573962234	-1.158958887	-1.4274068413	-1.5183695026	-2.2764318369
-0.7542513807	0.0614843429	-0.9365760403	-0.7834697569	-1.1092761478	-1.49818647	-0.5358385363	-0.9785799823	-1.4246773099	-0.6407320352	-1.4093731429
-0.7583619153	0.0582405275	-0.9402979113	-0.7952104993	-1.1104404225	-1.461175478	-0.4975720894	-0.7855401547	-1.3936934878	-0.4695153797	-1.3431472681
-0.762442511	0.0550248136	-0.9439214476	-0.8067928583	-1.1116879848	-1.4241822336	-0.4592567755	-0.5845612753	-1.3327372962	-1.2593090802	-2.2491813396
-0.7664930068	0.0518373602	-0.947447915	-0.8182169516	-1.1130195298	-1.3872922348	-0.4209822196	-0.3806229337	-1.2413425517	-2.1078520325	-3.0265890463
-0.7705132428	0.0486783255	-0.9508785855	-0.8294829325	-1.1144354553	-1.3505859596	-0.3828337216	-0.178729588	-1.1203542828	-1.9525260425	-2.3775065843
-0.7745030602	0.0455478662	-0.9542147367	-0.8405909898	-1.1159358817	-1.3141388638	-0.3448922109	0.0163133537	-0.9719034357	-0.8823003252	-0.4457464563
-0.7784623016	0.0424461378	-0.9574576514	-0.8515413463	-1.1175206708	-1.2780214033	-0.3072342241	0.2001004102	-0.7993001972	0.0921575283	1.088680747
-0.7823908106	0.0393732947	-0.9606086171	-0.8623342584	-1.1191894435	-1.2422990779	-0.2699319023	0.3687926306	-0.6068561014	0.2902755733	0.7693008446
-0.7862884321	0.03632949	-0.9636689248	-0.872970015	-1.1209415973	-1.2070324964	-0.2330530069	0.5192422704	-0.399650658	-0.1177637854	-0.7947710967
-0.7901550124	0.0333148758	-0.9666398693	-0.8834489368	-1.1227763226	-1.1722774593	-0.1966609531	0.6490717231	-0.1832619377	-0.5985885556	-1.4896015252
-0.7939903986	0.0303296028	-0.9695227478	-0.8937713755	-1.1246926184	-1.1380850575	-0.1608148576	0.7567065903	0.0365178774	-0.8157437643	-0.5983854467
-0.7977944395	0.0273738204	-0.97231886	-0.9039377128	-1.1266893069	-1.1045017865	-0.1255696015	0.8413660056	0.2539614798	-0.7424387187	0.2564556947
-0.8015669849	0.024447677	-0.975029507	-0.9139483597	-1.1287650482	-1.0715696728	-0.0909759041	0.9030158689	0.4636617802	-0.5042034301	-0.1522830167
-0.8053078857	0.0215513195	-0.9776559911	-0.9238037555	-1.1309183533	-1.0393264106	-0.057080409	0.9422923636	0.6607491077	-0.2307199681	-0.9638425173
-0.8090169944	0.0186848938	-0.9801996153	-0.9335043669	-1.1331475971	-1.0078055095	-0.0239257787	0.960404023	0.8410602619	-0.0009307414	-0.9456783329
-0.8126941644	0.0158485443	-0.9826616824	-0.9430506873	-1.1354510305	-0.9770364482	0.0084492024	0.9590207259	1.0012541729	0.1551830538	-0.116999284
-0.8163392507	0.0130424144	-0.9850434947	-0.9524432359	-1.1378267916	-0.9470448359	0.0400095172	0.9401574903	1.1388734583	0.242145963	0.7648804572
-0.8199521093	0.0102666461	-0.9873463538	-0.9616825565	-1.1402729167	-0.9178525779	0.0707237999	0.9060599356	1.2523550796	0.2888355147	1.2316398072
-0.8235325976	0.0075213801	-0.9895715594	-0.9707692172	-1.1427873505	-0.8894780455	0.1005642154	0.859096992	1.3409963474	0.3410762877	1.3227015186
-0.8270805743	0.0048067558	-0.9917204094	-0.979703809	-1.1453679556	-0.8619362478	0.1295063339	0.8016650042	1.4048845706	0.4505080286	1.2895231108
-0.8305958992	0.0021229116	-0.9937941991	-0.9884869451	-1.1480125214	-0.8352390051	0.1575290039	0.736105946	1.4447997081	0.6571468865	1.3431487227
-0.8340784336	-0.0005300158	-0.9957942211	-0.9971192602	-1.1507187728	-0.8093951232	0.1846142217	0.6646411436	1.4620995481	0.9704930276	1.5774139907
-0.83752804	-0.0031518907	-0.9977217641	-1.0056014092	-1.1534843779	-0.7844105665	0.2107470009	0.5893207751	1.4585963761	1.359089715	1.9825805166
-0.8409445823	-0.0057425787	-0.9995781133	-1.0139340669	-1.1563069557	-0.7602886298	0.2359152407	0.5119885006	1.4364329953	1.7563632768	2.4780112814
-0.8443279255	-0.0083019469	-1.0013645493	-1.0221179265	-1.1591840827	-0.7370301089	0.2601095941	0.4342599135	1.3979645357	2.0819143083	2.9427912881
-0.8476779361	-0.0108298635	-1.0030823481	-1.0301536992	-1.1621133	-0.7146334669	0.2833233372	0.3575130576	1.3456509031	2.2684451271	3.2443592061
-0.8509944818	-0.0133261982	-1.0047327803	-1.0380421132	-1.1650921184	-0.6930949991	0.3055522395	0.2828890222	1.2819631539	2.2818520511	3.2687260079
-0.8542774317	-0.0157908218	-1.006317111	-1.0457839126	-1.168118025	-0.6724089918	0.3267944353	0.2113005574	1.209305627	2.1269664143	2.9533464031
-0.8575266562	-0.0182236066	-1.0078365993	-1.0533798569	-1.1711884879	-0.652567879	0.3470502979	0.1434467188	1.1299544185	1.8395731613	2.3159604592
-0.860742027	-0.0206244261	-1.0092924976	-1.0608307198	-1.1743009613	-0.6335623927	0.3663223154	0.079831711	1.0460117831	1.4711136373	1.4639990885
-0.8639234172	-0.0229931553	-1.0106860517	-1.0681372886	-1.1774528896	-0.6153817092	0.3846149692	0.020786317	0.9593752928	1.0734511591	0.570565945
-0.8670707012	-0.0253296704	-1.0120185	-1.0753003634	-1.1806417122	-0.59801359	0.4019346159	-0.0335094431	0.8717200845	0.6884597473	-0.1803853584
-0.8701837547	-0.0276338489	-1.0132910735	-1.0823207557	-1.1838648669	-0.5814445167	0.4182893714	-0.0830035252	0.7844922352	0.3436656217	-0.6563196057
-0.8732624548	-0.0299055698	-1.0145049952	-1.0891992885	-1.1871197936	-0.5656598209	0.4336889987	-0.1277497932	0.6989112016	0.0526888936	-0.8156655321
-0.87630668	-0.0321447133	-1.0156614795	-1.0959367944	-1.1904039376	-0.5506438083	0.4481447989	-0.1678872889	0.6159792923	-0.181665505	-0.7079993762
-0.8793163102	-0.0343511611	-1.0167617325	-1.1025341158	-1.1937147524	-0.5363798767	0.4616695055	-0.2036212578	0.5364962809	-0.3635679607	-0.4408757794
-0.8822912264	-0.0365247962	-1.0178069511	-1.1089921031	-1.1970497027	-0.5228506284	0.4742771824	-0.2352061769	0.4610774689	-0.5007582985	-0.1343668161
-0.8852313113	-0.0386655029	-1.018798323	-1.1153116148	-1.2004062669	-0.5100379768	0.4859831249	-0.2629308961	0.3901737525	-0.6020642077	0.1156750597
-0.8881364488	-0.040773167	-1.0197370261	-1.121493516	-1.2037819393	-0.4979232475	0.496803765	-0.2871058948	0.3240924982	-0.6758731723	0.2550884004
-0.8910065242	-0.0428476755	-1.0206242287	-1.127538678	-1.207174232	-0.4864872729	0.506756579	-0.3080525779	0.2630182824	-0.7293661612	0.2706070963
-0.8938414242	-0.044888917	-1.0214610884	-1.1334479774	-1.2105806775	-0.4757104822	0.5158600003	-0.326094479	0.2070327824	-0.7682667424	0.1782284527
-0.8966410368	-0.0468967812	-1.0222487526	-1.1392222952	-1.2139988294	-0.4655729849	0.5241333337	-0.3415502031	0.1561333095	-0.7968903529	0.0087762096
-0.8994052516	-0.0488711596	-1.0229883576	-1.1448625162	-1.2174262648	-0.4560546502	0.5315966744	-0.3547279219	0.1102496532	-0.8183380914	-0.2040385831
-0.9021339594	-0.0508119447	-1.0236810291	-1.1503695282	-1.2208605855	-0.4471351796	0.5382708303	-0.3659212297	0.0692590506	-0.8347370964	-0.4310399758
-0.9048270525	-0.0527190305	-1.0243278808	-1.1557442212	-1.224299419	-0.4387941759	0.5441772465	-0.3754061655	0.0329992108	-0.8474736837	-0.6507695246
-0.9074844245	-0.0545923126	-1.0249300153	-1.1609874866	-1.2277404198	-0.4310112061	0.5493379343	-0.383439224	0.0012794156	-0.85739463	-0.8497182118
-0.9101059707	-0.0564316877	-1.0254885232	-1.1661002166	-1.2311812704	-0.4237658606	0.5537754023	-0.3902561831	-0.0261102205	-0.8649691685	-1.0209904603
-0.9126915874	-0.0582370542	-1.026004483	-1.1710833036	-1.2346196824	-0.4170378073	0.557512591	-0.3960715994	-0.0493911976	-0.8704131798	-1.1624417556
-0.9152411726	-0.0600083117	-1.0264789608	-1.1759376391	-1.2380533967	-0.4108068412	0.5605728103	-0.4010788338	-0.068790627	-0.873780897	-1.2749050825
-0.9177546257	-0.0617453613	-1.0269130102	-1.1806641133	-1.2414801849	-0.4050529302	0.5629796793	-0.4054504923	-0.0845366016	-0.8750304776	-1.3607792704
-0.9202318474	-0.0634481056	-1.0273076721	-1.1852636144	-1.2448978495	-0.3997562571	0.56475707	-0.4093391801	-0.0968547591	-0.8740694658	-1.4230370471
-0.9226727399	-0.0651164484	-1.0276639744	-1.1897370277	-1.2483042243	-0.3948972573	0.5659290521	-0.4128784839	-0.1059658594	-0.870785283	-1.4646027678
-0.9250772068	-0.0667502952	-1.0279829319	-1.1940852353	-1.2516971753	-0.3904566532	0.5665198417	-0.416184113	-0.1120842071	-0.8650648878	-1.4880125877
-0.9274451533	-0.0683495528	-1.0282655459	-1.1983091151	-1.2550746007	-0.3864154855	0.5665537517	-0.4193551397	-0.115416758	-0.8568068148	-1.4952705424
-0.9297764859	-0.0699141294	-1.0285128043	-1.2024095403	-1.2584344311	-0.3827551406	0.5660551444	-0.4224752943	-0.1161627648	-0.8459280154	-1.4878303291
-0.9320711125	-0.0714439347	-1.0287256812	-1.2063873788	-1.2617746305	-0.3794573758	0.5650483877	-0.4256142758	-0.1145138325	-0.8323672842	-1.466652033
-0.9343289425	-0.0729388799	-1.0289051369	-1.2102434927	-1.2650931956	-0.3765043415	0.5635578114	-0.4288290514	-0.1106542665	-0.8160865567	-1.4322998693
-0.9365498867	-0.0743988774	-1.0290521177	-1.2139787373	-1.2683881566	-0.3738786	0.5616076677	-0.4321651216	-0.1047616146	-0.7970709716	-1.3850593955
-0.9387338577	-0.0758238414	-1.0291675554	-1.2175939609	-1.2716575768	-0.371563143	0.5592220922	-0.4356577353	-0.097007318	-0.7753282989	-1.3250607426
-0.940880769	-0.0772136874	-1.0292523677	-1.2210900042	-1.2748995534	-0.369541406	0.5564250679	-0.4393330446	-0.0875574003	-0.75088811	-1.252399104
-0.9429905359	-0.0785683322	-1.0293074579	-1.2244676994	-1.2781122168	-0.3677972812	0.5532403902	-0.4432091894	-0.0765731364	-0.7238009034	-1.1672460922
-0.9450630752	-0.0798876944	-1.0293337144	-1.2277278699	-1.2812937311	-0.3663151274	0.5496916345	-0.4472973101	-0.0642116572	-0.6941372849	-1.0699465909
-0.947098305	-0.0811716937	-1.029332011	-1.2308713299	-1.284442294	-0.3650797794	0.5458021251	-0.4516024834	-0.0506264551	-0.6619872196	-0.9610961828
-0.949096145	-0.0824202515	-1.0293032065	-1.2338988836	-1.2875561368	-0.3640765547	0.5415949061	-0.4561245836	-0.0359677669	-0.6274593258	-0.841594715
-0.9510565163	-0.0836332907	-1.0292481449	-1.2368113247	-1.290633524	-0.3632912595	0.5370927132	-0.4608590685	-0.0203828195	-0.5906801532	-0.7126724419
-0.9529793415	-0.0848107355	-1.0291676549	-1.2396094362	-1.2936727538	-0.3627101921	0.5323179481	-0.4657976924	-0.0040159328	-0.5517933782	-0.5758866435
-0.9548645447	-0.0859525116	-1.0290625501	-1.2422939894	-1.2966721578	-0.3623201466	0.5272926535	-0.4709291505	0.0129915211	-0.5109588523	-0.433088639
-0.9567120516	-0.0870585465	-1.0289336285	-1.244865744	-1.2996301007	-0.3621084142	0.5220384903	-0.4762396558	0.0305012938	-0.4683514521	-0.2863635244
-0.958521789	-0.0881287686	-1.0287816731	-1.2473254473	-1.3025449804	-0.3620627838	0.5165767152	-0.4817134545	0.0483785606	-0.4241596939	-0.1379474468
-0.9602936857	-0.0891631084	-1.0286074511	-1.2496738338	-1.305415228	-0.3621715419	0.5109281607	-0.4873332819	0.0664923284	-0.3785840968	0.0098705756
-0.9620276716	-0.0901614974	-1.0284117141	-1.2519116248	-1.3082393075	-0.3624234717	0.5051132159	-0.4930807642	0.0847159323	-0.3318352977	0.1548537299
-0.9637236783	-0.091123869	-1.028195198	-1.254039528	-1.3110157156	-0.362807851	0.499151808	-0.4989367701	0.1029275998	-0.2841319386	0.2949201953
-0.9653816388	-0.0920501577	-1.0279586232	-1.2560582371	-1.3137429818	-0.3633144497	0.4930633862	-0.5048817143	0.1210110592	-0.2356983636	0.4282348682
-0.9670014878	-0.0929402998	-1.027702694	-1.2579684313	-1.3164196681	-0.3639335268	0.4868669053	-0.5108958205	0.1388561712	-0.1867621739	0.5532826664
-0.9685831611	-0.093794233	-1.0274280988	-1.259770775	-1.3190443691	-0.3646558272	0.4805808116	-0.5169593428	0.1563595582	-0.1375516997	0.668918257
-0.9701265965	-0.0946118964	-1.0271355101	-1.2614659177	-1.3216157116	-0.365472577	0.4742230293	-0.5230527541	0.1734252125	-0.0882934508	0.7743897119
-0.9716317329	-0.0953932309	-1.0268255844	-1.2630544931	-1.3241323544	-0.3663754802	0.4678109476	-0.5291569002	0.1899650613	-0.0392096096	0.8693363252
-0.973098511	-0.0961381785	-1.026498962	-1.2645371193	-1.3265929887	-0.3673567129	0.4613614092	-0.5352531267	0.2058994724	0.0094843706	0.953763264
-0.9745268728	-0.096846683	-1.0261562673	-1.2659143979	-1.3289963373	-0.3684089196	0.4548906997	-0.541323379	0.221157684	0.0575820067	1.0279975761
-0.9759167619	-0.0975186896	-1.0257981081	-1.2671869146	-1.3313411549	-0.3695252075	0.4484145372	-0.5473502795	0.2356781468	0.1048878161	1.0926311897
-0.9772681236	-0.0981541451	-1.0254250763	-1.2683552378	-1.3336262278	-0.3706991416	0.4419480639	-0.5533171844	0.2494087689	0.1512190957	1.1484568744
-0.9785809043	-0.0987529977	-1.0250377473	-1.2694199193	-1.3358503739	-0.3719247392	0.435505837	-0.5592082223	0.2623070568	0.1964074173	1.1964027782
-0.9798550524	-0.0993151973	-1.0246366804	-1.2703814933	-1.3380124424	-0.3731964652	0.4291018216	-0.5650083177	0.2743401497	0.2402998209	1.2374702835
-0.9810905174	-0.099840695	-1.0242224184	-1.2712404766	-1.340111314	-0.3745092263	0.4227493833	-0.5707031995	0.285484746	0.282759693	1.2726787448
-0.9822872507	-0.1003294438	-1.0237954875	-1.2719973684	-1.3421459002	-0.3758583659	0.4164612823	-0.576279399	0.2957269249	0.3236673289	1.3030193792
-0.983445205	-0.100781398	-1.0233563979	-1.2726526495	-1.3441151441	-0.377239659	0.4102496671	-0.581724237	0.305061867	0.362920187	1.3294193691
-0.9845643345	-0.1011965135	-1.0229056429	-1.2732067829	-1.3460180193	-0.3786493069	0.4041260697	-0.5870258028	0.313493482	0.4004328482	1.3527162032
-0.9856445951	-0.1015747476	-1.0224436996	-1.2736602131	-1.3478535305	-0.3800839325	0.3981014007	-0.5921729257	0.321033951	0.4361367022	1.3736415123
-0.9866859442	-0.1019160593	-1.0219710285	-1.2740133658	-1.3496207133	-0.3815405751	0.392185945	-0.597155141	0.3277031941	0.4699793854	1.3928131557
-0.9876883406	-0.1022204091	-1.0214880735	-1.2742666483	-1.3513186338	-0.3830166857	0.3863893581	-0.6019626504	0.3335282752	0.5019239986	1.4107340568
-0.9886517447	-0.1024877589	-1.020995262	-1.2744204488	-1.3529463888	-0.3845101226	0.3807206625	-0.6065862796	0.3385427539	0.5319481367	1.4277962359
-0.9895761186	-0.1027180723	-1.0204930048	-1.2744751366	-1.3545031058	-0.386019147	0.3751882447	-0.6110174318	0.3427859993	0.5600427606	1.4442885784
-0.9904614257	-0.1029113144	-1.019981696	-1.2744310617	-1.3559879428	-0.3875424184	0.3697998522	-0.6152480394	0.3463024761	0.586210943	1.4604070554
-0.9913076311	-0.1030674517	-1.0194617132	-1.2742885552	-1.3574000881	-0.3890789909	0.3645625913	-0.6192705133	0.3491410164	0.6104665194	1.4762663372
-0.9921147013	-0.1031864525	-1.0189334173	-1.2740479284	-1.3587387605	-0.3906283095	0.3594829246	-0.6230776913	0.3513540873	0.6328326721	1.4919119605
-0.9928826046	-0.1032682863	-1.0183971527	-1.2737094736	-1.3600032093	-0.392190206	0.3545666691	-0.6266627847	0.3529970669	0.6533404734	1.507332421
-0.9936113105	-0.1033129245	-1.0178532469	-1.2732734632	-1.361192714	-0.3937648956	0.349818994	-0.6300193245	0.3541275374	0.6720274126	1.5224707336
-0.9943007904	-0.1033203398	-1.0173020109	-1.2727401504	-1.3623065845	-0.3953529741	0.3452444194	-0.6331411063	0.3548046044	0.6889359266	1.5372351414
-0.994951017	-0.1032905065	-1.0167437389	-1.2721097687	-1.3633441611	-0.3969554143	0.3408468145	-0.6360221343	0.3550882519	0.7041119513	1.5515087607
-0.9955619646	-0.1032234004	-1.0161787085	-1.2713825319	-1.3643048142	-0.3985735635	0.3366293961	-0.6386565642	0.3550387372	0.7176035096	1.5651580238
-0.9961336091	-0.1031189991	-1.0156071805	-1.2705586344	-1.3651879448	-0.4002091404	0.3325947272	-0.6410386453	0.3547160337	0.7294593456	1.5780398389
-0.996665928	-0.1029772814	-1.0150293991	-1.2696382508	-1.365992984	-0.4018642329	0.3287447159	-0.6431626604	0.3541793258	0.7397276145	1.5900074294
-0.9971589003	-0.1027982278	-1.0144455918	-1.2686215362	-1.3667193933	-0.4035412954	0.3250806139	-0.6450228644	0.3534865579	0.7484546329	1.6009148471
-0.9976125064	-0.1025818204	-1.0138559693	-1.2675086261	-1.3673666648	-0.405243147	0.3216030155	-0.6466134195	0.3526940428	0.7556836935	1.6106201849
-0.9980267284	-0.1023280427	-1.0132607255	-1.2662996366	-1.3679343208	-0.4069729688	0.3183118562	-0.647928329	0.3518561287	0.7614539444	1.6189875409
-0.9984015501	-0.1020368801	-1.0126600378	-1.264994664	-1.3684219141	-0.4087343024	0.3152064118	-0.6489613661	0.3510249275	0.7657993308	1.6258878111
-0.9987369566	-0.101708319	-1.0120540666	-1.2635937858	-1.368829028	-0.4105310475	0.3122852971	-0.6497059996	0.3502501038	0.7687475987	1.6311984102
-0.9990329347	-0.1013423479	-1.0114429558	-1.2620970596	-1.3691552766	-0.4123674607	0.3095464651	-0.650155314	0.3495787238	0.7703193531	1.6348020389
-0.9992894726	-0.1009389564	-1.0108268323	-1.2605045242	-1.3694003045	-0.414248153	0.3069872059	-0.6503019244	0.3490551641	0.7705271685	1.6365846295
-0.9995065604	-0.100498136	-1.0102058066	-1.2588161991	-1.369563787	-0.4161780884	0.3046041453	-0.6501378849	0.3487210782	0.7693747434	1.6364326101
-0.9996841893	-0.1000198795	-1.0095799722	-1.257032085	-1.3696454305	-0.4181625819	0.3023932448	-0.6496545898	0.3486154188	0.7668560948	1.6342296291
-0.9998223524	-0.0995041815	-1.0089494059	-1.2551521637	-1.3696449722	-0.4202072981	0.3003497999	-0.6488426665	0.3487745137	0.7629547865	1.6298528767
-0.9999210442	-0.0989510379	-1.0083141678	-1.2531763983	-1.3695621803	-0.4223182486	0.2984684401	-0.6476918598	0.3492321934	0.7576431876	1.6231691312
-0.9999802609	-0.0983604463	-1.0076743012	-1.2511047335	-1.3693968542	-0.4245017907	0.2967431279	-0.6461909067	0.3500199656	0.7508817594	1.6140306427
-1	-0.0977324059	-1.0070298327	-1.2489370957	-1.3691488249	-0.4267646248	0.2951671587	-0.6443274001	0.3511672356	0.7426183729	1.6022709533
-0.9999802609	-0.0970669173	-1.0063807722	-1.2466733931	-1.3688179544	-0.4291137924	0.2937331606	-0.642087642	0.3527015678	0.7327876645	1.5877007342
-0.9999210442	-0.0963639827	-1.0057271126	-1.244313516	-1.3684041368	-0.4315566733	0.2924330945	-0.6394564845	0.3546489843	0.7213104438	1.5701037098
-0.9998223524	-0.0956236059	-1.0050688304	-1.2418573371	-1.3679072975	-0.434100983	0.2912582544	-0.636417159	0.357034297	0.7080931785	1.5492327306
-0.9996841893	-0.0948457924	-1.0044058851	-1.2393047116	-1.3673273941	-0.4367547698	0.2901992685	-0.6329510926	0.3598814677	0.6930275962	1.5248060566
-0.9995065604	-0.0940305489	-1.0037382195	-1.2366554774	-1.3666644162	-0.4395264107	0.2892460999	-0.6290377115	0.3632139925	0.6759904585	1.4965039271
-0.9992894726	-0.0931778839	-1.0030657598	-1.2339094556	-1.3659183858	-0.4424246087	0.2883880489	-0.6246542326	0.3670553031	0.6568435902	1.4639655192
-0.9990329347	-0.0922878074	-1.0023884153	-1.2310664507	-1.3650893572	-0.4454583874	0.2876137548	-0.6197754423	0.3714291795	0.6354342782	1.4267864453
-0.9987369566	-0.091360331	-1.0017060785	-1.2281262506	-1.3641774175	-0.448637087	0.2869111989	-0.6143734648	0.3763601676	0.6115961946	1.3845170095
-0.9984015501	-0.0903954677	-1.0010186254	-1.2250886274	-1.3631826866	-0.4519703586	0.2862677082	-0.60841752	0.3818739929	0.5851510544	1.3366615474
-0.9980267284	-0.0893932323	-1.0003259151	-1.2219533372	-1.3621053175	-0.4554681586	0.2856699596	-0.601873674	0.3879979628	0.5559112845	1.2826793043
-0.9976125064	-0.0883536409	-0.9996277899	-1.2187201208	-1.3609454963	-0.4591407416	0.2851039853	-0.5947045839	0.3947613464	0.5236840676	1.2219874936
-0.9971589003	-0.0872767114	-0.9989240754	-1.2153887038	-1.359703443	-0.4629986537	0.284555179	-0.5868692405	0.4021957228	0.4882772251	1.1539673964
-0.996665928	-0.0861624629	-0.9982145807	-1.2119587974	-1.358379411	-0.4670527238	0.2840083032	-0.5783227139	0.4103352849	0.4495075327	1.0779746552
-0.9961336091	-0.0850109164	-0.9974990978	-1.208430098	-1.3569736878	-0.4713140547	0.2834474979	-0.5690159061	0.4192170854	0.4072122036	0.9933552461
-0.9955619646	-0.0838220943	-0.9967774023	-1.2048022883	-1.355486595	-0.4757940135	0.2828562901	-0.5588953183	0.4288812121	0.3612644398	0.8994690128
-0.994951017	-0.0825960205	-0.9960492529	-1.2010750372	-1.3539184888	-0.4805042201	0.2822176054	-0.5479028403	0.4393708743	0.3115941214	0.7957230752
-0.9943007904	-0.0813327205	-0.9953143916	-1.1972480008	-1.35226976	-0.4854565355	0.2815137804	-0.535975571	0.4507323842	0.2582148665	0.6816178643
-0.9936113105	-0.0800322214	-0.9945725438	-1.1933208219	-1.3505408342	-0.4906630484	0.2807265775	-0.5230456828	0.4630150144	0.2012588148	0.5568089219
-0.9928826046	-0.0786945519	-0.9938234182	-1.1892931314	-1.3487321724	-0.4961360608	0.2798372006	-0.5090403414	0.4762707094	0.1410205191	0.4211878316
-0.9921147013	-0.0773197419	-0.9930667067	-1.1851645482	-1.3468442708	-0.501888072	0.2788263136	-0.4938816974	0.490553629	0.0780111876	0.2749855688
-0.9913076311	-0.0759078232	-0.9923020847	-1.1809346796	-1.3448776613	-0.5079317617	0.2776740605	-0.4774869669	0.505919501	0.013024101	0.1189009327
-0.9904614257	-0.0744588291	-0.9915292106	-1.1766031222	-1.3428329119	-0.5142799711	0.2763600873	-0.4597686214	0.5224247537	-0.0527888365	-0.0457447635
-0.9895761186	-0.0729727942	-0.9907477267	-1.1721694618	-1.3407106263	-0.5209456826	0.2748635671	-0.4406347097	0.5401254056	-0.1178309643	-0.2168283234
-0.9886517447	-0.0714497549	-0.989957258	-1.1676332746	-1.3385114449	-0.527941998	0.2731632265	-0.4199893368	0.5590756794	-0.1799691084	-0.3912267108
-0.9876883406	-0.069889749	-0.9891574135	-1.1629941269	-1.3362360446	-0.5352821147	0.2712373758	-0.3977333286	0.5793263145	-0.2364437352	-0.5646133586
-0.9866859442	-0.068292816	-0.9883477852	-1.1582515764	-1.3338851391	-0.5429793003	0.2690639409	-0.3737651119	0.600922547	-0.2837935236	-0.7312709733
-0.9856445951	-0.0666589967	-0.9875279487	-1.153405172	-1.3314594792	-0.5510468651	0.2666204983	-0.3479818434	0.6239017295	-0.3178133155	-0.8839550871
-0.9845643345	-0.0649883335	-0.9866974629	-1.1484544551	-1.3289598526	-0.5594981328	0.2638843135	-0.3202808222	0.6482905631	-0.3335720938	-1.0138565953
-0.983445205	-0.0632808704	-0.9858558703	-1.1433989595	-1.326387085	-0.5683464088	0.2608323818	-0.2905612221	0.6741019207	-0.3255257196	-1.1107256169
-0.9822872507	-0.061536653	-0.9850026967	-1.1382382122	-1.3237420391	-0.5776049467	0.2574414725	-0.2587261799	0.7013312405	-0.2877658641	-1.1632297223
-0.9810905174	-0.0597557282	-0.9841374516	-1.1329717341	-1.3210256157	-0.5872869125	0.2536881771	-0.2246852762	0.7299524829	-0.2144488484	-1.1596212925
-0.9798550524	-0.0579381447	-0.9832596279	-1.1275990405	-1.3182387536	-0.5974053464	0.2495489595	-0.1883574426	0.7599136484	-0.1004414413	-1.0887739116
-0.9785809043	-0.0560839525	-0.9823687021	-1.1221196415	-1.3153824293	-0.6079731218	0.2450002114	-0.1496743251	0.7911318724	0.0578007073	-0.9416075935
-0.9772681236	-0.0541932032	-0.9814641344	-1.1165330431	-1.3124576577	-0.6190029029	0.2400183097	-0.1085841272	0.8234881282	0.2611483035	-0.7128499486
-0.9759167619	-0.05226595	-0.9805453685	-1.1108387471	-1.309465492	-0.6305070986	0.2345796787	-0.0650559479	0.856821594	0.5065999597	-0.4029732098
-0.9745268728	-0.0503022474	-0.9796118318	-1.1050362525	-1.3064070235	-0.6424978149	0.2286608556	-0.0190846167	0.890923765	0.786151014	-0.0200145469
-0.973098511	-0.0483021517	-0.9786629353	-1.0991250555	-1.3032833819	-0.6549868039	0.2222385598	0.0293039874	0.9255324275	1.0860074865	0.4191447504
-0.9716317329	-0.0462657206	-0.9776980741	-1.0931046507	-1.3000957355	-0.6679854103	0.215289766	0.0800471665	0.9603256488	1.3864998066	0.8885514006
-0.9701265965	-0.0441930131	-0.9767166268	-1.0869745312	-1.2968452905	-0.6815045156	0.2077917817	0.1330392426	0.994915981	1.6630632297	1.3544931175
-0.9685831611	-0.0420840901	-0.9757179559	-1.0807341898	-1.2935332917	-0.6955544793	0.1997223274	0.1881250908	1.0288451291	1.8885481594	1.7786560187
-0.9670014878	-0.0399390137	-0.9747014078	-1.0743831192	-1.2901610219	-0.7101450776	0.1910596219	0.2450934895	1.0615793842	2.0368659133	2.1230498622
-0.9653816388	-0.0377578476	-0.9736663131	-1.067920813	-1.2867298019	-0.7252854387	0.1817824706	0.3036704472	1.0925061814	2.0875709475	2.3560866184
-0.9637236783	-0.035540657	-0.9726119861	-1.0613467665	-1.2832409905	-0.7409839767	0.171870358	0.3635127093	1.1209321965	2.0305124341	2.4586291885
-0.9620276716	-0.0332875087	-0.9715377253	-1.054660477	-1.2796959838	-0.7572483214	0.1613035433	0.4242016934	1.1460834523	1.8693240593	2.4284369254
-0.9602936857	-0.0309984709	-0.9704428136	-1.0478614448	-1.2760962156	-0.7740852467	0.1500631603	0.4852381494	1.1671079438	1.622473557	2.2814539297
-0.958521789	-0.0286736132	-0.9693265177	-1.0409491738	-1.2724431562	-0.791500596	0.1381313199	0.5460378877	1.1830813323	1.3210243449	2.0489575132
-0.9567120516	-0.0263130069	-0.968188089	-1.0339231725	-1.2687383128	-0.8094992046	0.1254912165	0.6059289618	1.1930162602	1.0031591219	1.7706463762
-0.9548645447	-0.0239167246	-0.967026763	-1.0267829543	-1.2649832286	-0.8280848212	0.1121272372	0.6641507287	1.1958758308	0.706619936	1.4849926982
-0.9529793415	-0.0214848405	-0.96584176	-1.0195280385	-1.2611794823	-0.8472600253	0.0980250736	0.7198552367	1.1905917374	0.4610777177	1.2191584461
-0.9510565163	-0.0190174303	-0.9646322846	-1.0121579512	-1.2573286876	-0.8670261445	0.0831718364	0.7721113999	1.1760874331	0.2826142387	0.9811429044
-0.949096145	-0.0165145711	-0.9633975261	-1.0046722257	-1.2534324923	-0.8873831686	0.0675561724	0.819912409	1.1513065788	0.1718143648	0.7566311437
-0.947098305	-0.0139763416	-0.9621366588	-0.9970704035	-1.2494925779	-0.9083296625	0.0511683824	0.8621867905	1.1152467973	0.1156859815	0.5127314771
-0.9450630752	-0.0114028217	-0.9608488417	-0.9893520351	-1.2455106583	-0.9298626777	0.0340005426	0.8978134617	1.0669984846	0.0923350747	0.2108613864
-0.9429905359	-0.0087940931	-0.9595332187	-0.9815166804	-1.2414884792	-0.9519776628	0.0160466246	0.9256410213	1.0057880905	0.0766186188	-0.1692897861
-0.940880769	-0.0061502388	-0.9581889191	-0.9735639103	-1.2374278169	-0.9746683728	-0.0026973816	0.9445113787	0.9310248794	0.0451517299	-0.596796162
-0.9387338577	-0.0034713433	-0.9568150572	-0.9654933064	-1.233330477	-0.9979267784	-0.0222333462	0.9532876396	0.8423497345	-0.0201067752	-0.9622899919
-0.9365498867	-0.0007574925	-0.9554107327	-0.9573044627	-1.2291982935	-1.0217429745	-0.0425608772	0.9508859461	0.7396840935	-0.1293826256	-1.0920018905
-0.9343289425	0.0019912262	-0.9539750309	-0.948996986	-1.2250331269	-1.0461050898	-0.0636772001	0.9363107161	0.6232766302	-0.282613318	-0.8456594694
-0.9320711125	0.0047747238	-0.9525070227	-0.9405704966	-1.2208368631	-1.0709991959	-0.0855770382	0.9086924456	0.4937448627	-0.4657987683	-0.287631625
-0.9297764859	0.0075929101	-0.9510057647	-0.9320246293	-1.2166114116	-1.0964092192	-0.108252496	0.8673269442	0.3521085224	-0.6462152076	0.2105383754
-0.9274451533	0.0104456934	-0.9494702997	-0.9233590343	-1.2123587036	-1.1223168527	-0.1316929444	0.8117145871	0.199811315	-0.7696041008	0.1620241591
-0.9250772068	0.0133329803	-0.9478996564	-0.9145733777	-1.2080806903	-1.1487014714	-0.1558849105	0.7415979032	0.038727694	-0.7671733583	-0.5368926207
-0.9226727399	0.0162546762	-0.9462928498	-0.9056673425	-1.2037793404	-1.1755400499	-0.1808119713	0.656995606	-0.1288484885	-0.5834129527	-1.2817638747
-0.9202318474	0.0192106851	-0.9446488814	-0.8966406293	-1.1994566384	-1.2028070831	-0.206454653	0.5582310354	-0.3002360572	-0.2289745498	-1.2024994079
-0.9177546257	0.0222009094	-0.9429667394	-0.8874929573	-1.1951145815	-1.2304745119	-0.2327903354	0.4459529461	-0.4724210612	0.1632298868	-0.1390335672
-0.9152411726	0.0252252502	-0.9412453988	-0.8782240648	-1.1907551775	-1.2585116525	-0.2597931647	0.3211466629	-0.6421343663	0.3388142927	0.9915678892
-0.9126915874	0.0282836071	-0.9394838216	-0.8688337105	-1.1863804418	-1.2868851321	-0.2874339727	0.1851338572	-0.8059514039	0.0452321879	1.0376379769
-0.9101059707	0.0313758784	-0.9376809572	-0.8593216736	-1.1819923942	-1.3155588304	-0.3156802054	0.0395595792	-0.9604115052	-0.7445464507	-0.2470448426
-0.9074844245	0.0345019607	-0.9358357421	-0.8496877553	-1.177593056	-1.3444938278	-0.3444958614	-0.1136342894	-1.1021524657	-1.687240487	-2.011027587
-0.9048270525	0.0376617495	-0.9339471008	-0.8399317793	-1.1731844463	-1.3736483622	-0.3738414408	-0.2722493349	-1.2280542356	-2.2253598322	-3.1097286553
-0.9021339594	0.0408551387	-0.9320139457	-0.8300535925	-1.1687685782	-1.4029777938	-0.4036739052	-0.4338840731	-1.3353840975	-2.0208404338	-3.0083335132
-0.8994052516	0.0440820208	-0.9300351772	-0.8200530659	-1.1643474555	-1.4324345792	-0.4339466517	-0.5959991585	-1.4219345604	-1.2859544271	-2.0650178782
-0.8966410368	0.0473422872	-0.9280096841	-0.8099300954	-1.1599230675	-1.4619682565	-0.4646094989	-0.7559921082	-1.4861446413	-0.6359452371	-1.122297482
-0.8938414242	0.0506358274	-0.9259363441	-0.7996846028	-1.1554973853	-1.4915254412	-0.4956086887	-0.9112785462	-1.5271953791	-0.5717534572	-0.830385396
-0.8910065242	0.0539625298	-0.9238140234	-0.7893165361	-1.1510723571	-1.5210498341	-0.5268869033	-1.0593763518	-1.5450714106	-1.1041586448	-1.2578960075
-0.8881364488	0.0573222815	-0.9216415777	-0.7788258706	-1.1466499024	-1.5504822423	-0.5583832988	-1.1979886674	-1.5405822501	-1.8415929798	-2.0218861131
