    0.0796304     0.0475297    -0.0149053     0.0826023     -0.047011     0.0345102     0.0253956    0.00101331    0.00056738  -0.000567966  -0.000690107   0.000127327
    0.0866034     0.0491659    0.00364552     0.0943509    -0.0549328     0.0281618     0.0247285   -0.00361073  3.13214e-005   0.000657553   0.000560112  -0.000420564
    0.0865035     0.0478994     0.0202051      0.112327    -0.0649752     0.0224486     0.0238723   -0.00763638    -0.0004765   0.000195947   0.000449104 -6.96275e-005
    0.0889672     0.0486015     0.0381936      0.124304    -0.0717516     0.0152092     0.0226072    -0.0114764  -0.000424024  7.89252e-005  -0.000335715  -0.000380573
    0.0866458     0.0450244     0.0249536      0.117558    -0.0690287     0.0182786     0.0236245   -0.00894852  -0.000635302    0.00090645  -0.000234817  -0.000512266
    0.0883464     0.0453855     0.0236011      0.118002      -0.06972     0.0171665     0.0228393    -0.0084241 -8.56107e-005 -5.69356e-005  5.69025e-005  -0.000338474
    0.0875965     0.0470738     0.0325616      0.121134    -0.0716651     0.0135982     0.0223346   -0.00947285  -0.000141208   0.000568397  -0.000411235  -0.000307554
    0.0869428     0.0550158     0.0118596       0.12243     -0.063223     0.0153454     0.0214128   -0.00568518   0.000583094   0.000174376  -0.000409861  -0.000522791
    0.0790757     0.0615176    -0.0185459      0.119125    -0.0544765      0.021091     0.0198449   0.000725736  -0.000130363  9.95432e-006   0.000833252 -7.84778e-006
    0.0746986     0.0602353    -0.0361011      0.107486    -0.0468613     0.0257127     0.0206217    0.00435476   0.000419462  -0.000430526  -0.000130529 -5.70501e-005
    0.0725178      0.062284    -0.0370115      0.104413    -0.0447281     0.0273203      0.019965    0.00443231   0.000577084  2.36791e-005   -0.00017433   0.000925688
    0.0531303     0.0617992    -0.0232989      0.129141    -0.0555226      0.029957     0.0177004    0.00104413   0.000412455  -0.000441098  -0.000133053 -8.70288e-005
    0.0463996     0.0633148    -0.0303567      0.129248    -0.0516094     0.0305118     0.0170805    0.00157551   0.000186437  -0.000402739  -0.000317114   0.000363037
    0.0524979     0.0771124     -0.039414      0.123192    -0.0410966     0.0243152     0.0191589    0.00536076   0.000866764   0.000108221   0.000764533  -0.000156383
    0.0648616     0.0854896       -0.0198      0.135259    -0.0432453     0.0109224     0.0164571    0.00369698   -0.00014563  -0.000302235  -0.000706869   0.000346861
     0.077514     0.0907108   -0.00952418       0.13441    -0.0420894    0.00277719     0.0151549    0.00299886   0.000588803   0.000102014  -0.000410746  -0.000483307
     0.079535     0.0986845    0.00674341      0.136125    -0.0373456   -0.00584714     0.0137039    0.00415576   0.000423762   0.000289413    0.00017082  -0.000663999
    0.0878889     0.0990197     0.0274401      0.122466    -0.0307028    -0.0108858     0.0150444    0.00526687 -9.07957e-005  -0.000147974  7.57445e-005  -0.000267889
    0.0954889      0.100757     0.0200195      0.115714    -0.0299101    -0.0112699     0.0137372    0.00585076  -0.000523387   -0.00044465   0.000721027  -0.000509816
    0.0984587     0.0985901     0.0266607      0.121972    -0.0373789    -0.0116543     0.0152874    0.00241091   0.000475276  -0.000313917   0.000650839   -0.00070271
     0.101807     0.0962297     0.0268451      0.117144    -0.0392914   -0.00678222     0.0170126    0.00334086   0.000524838    0.00023683   0.000393573  -0.000188462
    0.0914637     0.0936728     0.0109012      0.114587    -0.0372129    0.00490186     0.0154365    0.00811375    0.00057889  -0.000398347   0.000859234  -0.000204677
    0.0881029      0.088765     0.0220674      0.115404    -0.0389217    0.00548125     0.0172665      0.007926   0.000517795   0.000236928   0.000393335  -0.000169272
     0.093284     0.0924051     0.0347443      0.111387    -0.0371014 -6.68329e-005     0.0158259    0.00584824  -0.000536529   0.000747897 -2.86559e-006  3.52235e-005
    0.0925185     0.0968353     0.0431195      0.112169    -0.0371477     -0.003733      0.014728    0.00393326   0.000183177   0.000374946  6.16832e-006  -0.000208458
    0.0903196      0.098683     0.0505404      0.111348    -0.0323201   -0.00733779     0.0157522    0.00346459   1.8321e-005   0.000577296   0.000585386  -0.000393651
    0.0885808      0.101075     0.0491385      0.113252    -0.0317264   -0.00750266     0.0152117    0.00293423   0.000285121   0.000287492   0.000224008   0.000259923
    0.0838261       0.10395     0.0566268      0.128397    -0.0398751    -0.0110224     0.0134132  -0.000756997   0.000900804  -8.6363e-006   1.3476e-005  -0.000473101
     0.077946      0.107317     0.0556949      0.136352    -0.0395895    -0.0139023     0.0126694   -0.00199797   0.000168497  -0.000427571   -0.00028057   0.000345998
    0.0745717      0.109427     0.0478936      0.130809    -0.0375091     -0.010448     0.0121559  -0.000992159   0.000183204   0.000358614  4.91064e-006  -0.000238611
    0.0633104      0.112692     0.0434186      0.131532    -0.0350461   -0.00869129     0.0116266   0.000230244 -4.27609e-005  -0.000254209  -0.000706685  -0.000581332
     0.059649       0.11331     0.0452544      0.130842    -0.0338407   -0.00563578     0.0124801    0.00129144  -0.000101139  -0.000139425  8.12645e-005  -0.000291425
    0.0717617      0.105669     0.0664864      0.123143    -0.0385691     -0.008515     0.0134609   -0.00180233  -0.000158917   0.000511281  -0.000382033  -0.000264576
    0.0772126     0.0952983     0.0876024      0.124347    -0.0442953    -0.0106093       0.01248    -0.0071878  -5.6173e-005   0.000440411  -0.000165129   0.000180527
    0.0876069     0.0912793     0.0924776      0.117453    -0.0456495   -0.00778187     0.0127394   -0.00729586   -0.00066954  8.84632e-005  -0.000485175  9.49605e-005
     0.094479     0.0902237     0.0767158     0.0967827    -0.0366785   -0.00124237     0.0151126   -0.00251574  4.97602e-005   0.000379343  5.13857e-005   0.000689197
    0.0684277     0.0846074     0.0730653      0.106746     -0.038514     0.0086409     0.0154008   -0.00156315  -0.000169979   0.000551597  -0.000376164  -0.000254896
    0.0518828     0.0857194     0.0708829      0.121953    -0.0453746     0.0139848      0.013759   -0.00221785 -6.52289e-005   0.000451183  -0.000169802   0.000201431
    0.0740706     0.0960204     0.0714971      0.118625    -0.0425797    0.00352486     0.0132331   -0.00363694  -0.000109836 -9.23205e-005  8.82414e-005  -0.000309501
    0.0841153      0.103082      0.081384      0.136343    -0.0487275   -0.00110215     0.0127175   -0.00613397   0.000540225  1.45961e-005  -0.000137379   0.000858122
    0.0766882     0.0980132     0.0704329      0.143793    -0.0510179    0.00226602     0.0116167   -0.00529244    0.00038528  -0.000449514 -9.91909e-005  -0.000122647
    0.0839296     0.0888401     0.0748225      0.131362    -0.0478874    0.00147685      0.010811   -0.00489521   0.000329698   0.000839221 -3.64381e-005   0.000719592
    0.0810485      0.076165     0.0811238      0.123932    -0.0497923    0.00619488     0.0120636   -0.00519676  -0.000338563 -4.64685e-005 -9.71741e-005    0.00012374
    0.0607349     0.0588415     0.0689112      0.111985    -0.0457732     0.0171017     0.0144347   -0.00141837  -0.000236784   0.000394901   -0.00113921   0.000371149
    0.0592615     0.0508193     0.0978155      0.125458    -0.0574058      0.014651     0.0128216   -0.00682045  -0.000455542  6.05257e-005  -0.000305499  -0.000359379
    0.0705056     0.0441984      0.130548      0.132492    -0.0692002    0.00689454     0.0118759    -0.0127061  -0.000459187  7.14679e-005  -0.000300636  -0.000393933
    0.0774387     0.0431666      0.108784      0.114532     -0.060373    0.00811131     0.0159149   -0.00902523   0.000597647   0.000227574   0.000629515   0.000219524
    0.0884458     0.0451335      0.120368      0.115663    -0.0612273    0.00304426     0.0168211    -0.0103212 -1.68135e-005  -0.000133899   0.000311205   0.000124657
    0.0945922     0.0486044      0.147575      0.124645    -0.0665045   -0.00323471     0.0157052    -0.0142458   0.000536665   0.000209314  -0.000359773  -0.000567116
    0.0920263     0.0599912      0.135347      0.125452    -0.0621987   -0.00301537     0.0136945    -0.0107474   0.000486554   0.000301667   0.000423127   -0.00026596
    0.0894368     0.0654532      0.112012      0.111324    -0.0539471    0.00555887     0.0155342   -0.00583096    -0.0004694  -0.000709668   -0.00058288   0.000246097
    0.0951588     0.0712193     0.0979665     0.0994656    -0.0476263    0.00937619     0.0164335   -0.00226359  -0.000175119    0.00057297  -0.000371059  -0.000259129
     0.116683      0.082993      0.113147      0.103311    -0.0478447   0.000159164     0.0144553   -0.00669187   0.000373985  -0.000385209 -7.53334e-005  -0.000106642
     0.133325     0.0890167      0.130738      0.106863    -0.0509598   -0.00720254     0.0123465   -0.00926114   0.000159751   0.000439155  3.06906e-005     -0.000268
      0.13444     0.0903204      0.148307      0.125733    -0.0603231    -0.0108051     0.0095679    -0.0103251   0.000370758   -0.00040789  -7.4161e-005  -0.000140623
     0.135534     0.0971849        0.1242      0.115298    -0.0479499   -0.00706401      0.011232   -0.00355535  -0.000226635  1.26121e-006  -0.000110569   -0.00078202
     0.149598     0.0988278      0.115879      0.093334    -0.0376322   -0.00626782     0.0122933  -0.000241237   0.000387837   0.000379256   0.000216267  -0.000663026
     0.164432     0.0931862      0.130166     0.0800076    -0.0384355     -0.004107     0.0120738    0.00196178   0.000595849   0.000217489   0.000648323   0.000293119
     0.148505     0.0856935      0.110583      0.069347     -0.033046    0.00948479      0.014335    0.00729357     0.0006466   0.000113825  -0.000138936  3.82159e-005
     0.144399     0.0768691      0.123452     0.0720812    -0.0372063     0.0120852     0.0128621    0.00339355 -7.76316e-005    0.00050021  -0.000142997   0.000253977
     0.155457      0.076433      0.114592     0.0620478    -0.0334796     0.0127037     0.0150042    0.00557446  3.30551e-005  -0.000232198  -0.000458705  -5.2905e-005
     0.167213     0.0873489     0.0964872     0.0552523    -0.0255534     0.0067608     0.0145129    0.00652144  -0.000503578   0.000201206   0.000501394   3.4271e-005
     0.170582      0.087936      0.114383     0.0609175    -0.0294034     0.0024512     0.0133956    0.00269487   -0.00024052 -8.20171e-005   0.000144226   0.000669639
     0.143886     0.0794223      0.127455     0.0854884    -0.0417551     0.0084394      0.014499  -5.7145e-008  2.75068e-005   0.000409387  6.69134e-005   0.000701497
     0.155603     0.0803448      0.122486     0.0788756    -0.0406771    0.00682017     0.0138096  -0.000686006   0.000753792  3.92523e-005  7.15382e-005   0.000468437
       0.1689      0.082743      0.124877       0.07103    -0.0414645    0.00589937     0.0125593   -0.00181746   0.000318353   0.000267268   -0.00053651 -2.74978e-005
     0.163037        0.0828      0.111243     0.0782348    -0.0415372    0.00685678     0.0118618 -8.53713e-005    0.00016241   0.000449249   3.0226e-005  -0.000209443
     0.180676     0.0767271      0.104139     0.0622953    -0.0382146    0.00339487     0.0130832   0.000493005   0.000224017  -0.000166385   0.000501193  -0.000234542
     0.193775     0.0701329      0.131609     0.0665885    -0.0478052   -0.00308342     0.0143423   -0.00503475   -0.00034046  2.53848e-005 -7.34036e-005   0.000155947
     0.197608      0.065827      0.119825     0.0495807     -0.045128  -0.000752293      0.015489   -0.00358867  -0.000388868   0.000667322  -0.000543734   0.000211057
     0.201233     0.0629525      0.116262      0.042105    -0.0425894    0.00157979     0.0175574   -0.00247039  -0.000335712  5.02311e-005  -7.1991e-005    0.00018258
     0.205228     0.0721986      0.116949      0.047874    -0.0418713    0.00192733     0.0180649   -0.00193861   -0.00039262   0.000671671  -0.000542812   0.000220379
     0.203683     0.0780995     0.0951424     0.0440936    -0.0377211    0.00331305     0.0185689   0.000775209  -0.000225062 -5.21872e-005   0.000134509   0.000668577
     0.200958     0.0785782      0.100787     0.0473911    -0.0419046    0.00168977     0.0197186  -7.5224e-005   0.000160711  -0.000293119  -0.000255031   0.000400583
     0.202848     0.0700549     0.0983357     0.0433553    -0.0416545    0.00191186      0.021154   0.000440193  -0.000837981  -0.000409628  -0.000186764   0.000576907
     0.207186     0.0607271      0.079773     0.0267138    -0.0369403    0.00446029     0.0229331    -0.0002704  -0.000602784  -0.000433393  -5.6086e-006   0.000140985
     0.221381     0.0618295     0.0770863    0.00945356     -0.034844    0.00277611     0.0240634   -0.00124783   0.000187693    0.00053598  3.17328e-005  -0.000171361
     0.220355     0.0608054     0.0838554     0.0119883    -0.0377406    0.00230091     0.0243005   -0.00171206   -0.00048068   0.000284025    0.00049697  2.02542e-005
     0.223546     0.0573186     0.0997286     0.0143197    -0.0430979    0.00305757      0.023337   -0.00508602  -0.000218235  7.96421e-006   0.000138843   0.000658632
     0.246921     0.0537184      0.110461     0.0042859    -0.0439949   -0.00167376     0.0225666   -0.00621062  -0.000107255  -0.000720115   -0.00017322   0.000335796
     0.261849     0.0541568      0.107571    0.00707482    -0.0415448   -0.00431534     0.0236051   -0.00662081   0.000506111  -0.000358788   0.000146898   0.000422945
     0.264285     0.0497846      0.112413     0.0132711    -0.0446752    -0.0015795      0.024849   -0.00815609   0.000170765  -0.000873266  -0.000778325  -0.000406967
      0.26338     0.0405777     0.0888659    -0.0115259    -0.0341081    0.00652084     0.0276767   -0.00264573   0.000171692  -0.000206052  -0.000248734   0.000428565
     0.262684     0.0392512     0.0748277    -0.0227875     -0.028548     0.0102448     0.0304511   0.000950848   0.000905616   0.000209618  4.39988e-005  -0.000376027
     0.271352     0.0389337     0.0857756    -0.0196855    -0.0295254    0.00351163       0.02694   -0.00146456   0.000787408   0.000157746  7.47156e-005   0.000528562
      0.26994     0.0374648     0.0877179    -0.0200524    -0.0295983    0.00506776     0.0264766   -0.00247073   0.000453157   0.000293544  -0.000320687   0.000499826
     0.266836     0.0348894     0.0902858    -0.0157978    -0.0293179    0.00531841     0.0249907    -0.0031026   0.000785153   0.000157309  7.52731e-005   0.000520175
     0.287758     0.0383436     0.0898943    -0.0307012    -0.0247644   0.000322839      0.024688   -0.00411063    0.00101832   0.000126367   0.000261695  8.13486e-005
     0.293862     0.0437317      0.100352     -0.025512    -0.0312043  -0.000303363     0.0234808   -0.00602227   0.000524432   0.000457949   0.000438332   -0.00014322
     0.280254     0.0450015      0.109748   -0.00198406    -0.0409537    -0.0012678     0.0215036   -0.00891829   0.000230019  -0.000839532   0.000221213   0.000356794
     0.264582     0.0402854      0.106404    0.00301498     -0.042903     0.0036749     0.0210791   -0.00674458  -0.000212029  -0.000628656  -0.000389423  -0.000134105
      0.26453     0.0363204      0.112312    0.00234008    -0.0467211    0.00485367     0.0213231   -0.00726244   0.000171619  -0.000214508  -0.000250254   0.000395803
     0.274797     0.0379988      0.134237     0.0174495    -0.0589548   -0.00315051     0.0210108    -0.0127083      0.000398  -0.000258969 -6.77244e-005 -8.67152e-005
     0.267974     0.0378063      0.119582     0.0119902    -0.0548461    0.00206537     0.0206765   -0.00831215   0.000120779  -0.000762287  4.28312e-006  -0.000127055
     0.271192     0.0381952       0.09167   -0.00871777    -0.0423019    0.00976191      0.023558   -0.00136028   0.000402769   -0.00026025 -7.04347e-005 -1.74108e-005
     0.273246     0.0327827      0.106951  -0.000781613    -0.0487626    0.00735981     0.0222473   -0.00730706   0.000894732  -0.000582353  -0.000247266   0.000161732
     0.273399     0.0299243      0.123761    0.00648537    -0.0566257    0.00482731     0.0214372    -0.0101721 -1.18473e-006  -0.000789804  3.48697e-005   0.000784072
     0.265663     0.0275453      0.113765    0.00270575    -0.0540414     0.0085287     0.0239121   -0.00822605   0.000278839  -0.000940647  -0.000568322  6.45199e-005
     0.250506     0.0245989      0.100079    0.00488347     -0.053767     0.0135727     0.0253423   -0.00487262    0.00039756   -0.00025327 -7.31742e-005 -4.54312e-005
     0.256017     0.0255278      0.101905     0.0052759    -0.0558408     0.0100172     0.0254366   -0.00788033     0.0001739  -0.000204328   -0.00025742   0.000387229
     0.263179     0.0268428       0.11492     0.0103829    -0.0592976    0.00191103     0.0249697     -0.012494   0.000177162  -0.000852232  -0.000783994  -0.000429997
     0.256273     0.0275448      0.125412     0.0242759    -0.0631415    0.00103057     0.0227627    -0.0121314   0.000343703  -0.000150806   0.000713355   0.000194712
     0.264645     0.0276031       0.11517    0.00865063     -0.054459   -0.00018727     0.0244401    -0.0100922   0.000173863  -0.000209956   -0.00025305   0.000376871
     0.279553     0.0271332      0.108508   -0.00890179    -0.0506257   -0.00208809      0.024763   -0.00763812    0.00079236   0.000162498  7.04004e-005   0.000486645
     0.283828     0.0313862      0.114597     0.0031678    -0.0528963   -0.00776544     0.0246367   -0.00983818  -9.9084e-005  -0.000708452  -0.000178508   0.000318681
     0.281538     0.0347158      0.103443    0.00116644    -0.0479792   -0.00702444     0.0239519   -0.00832186  -0.000204341  2.34945e-005    0.00013542   0.000652283
     0.279367     0.0342031     0.0832388    -0.0124987    -0.0398747  -0.000731125     0.0245509   -0.00312456   0.000531667   0.000432778   0.000426788  -0.000142881
     0.278278     0.0336546     0.0784428    -0.0201357    -0.0392636    0.00218279     0.0260819   -0.00237671    0.00107939  9.66542e-007   -0.00053599  -0.000209944
     0.266093     0.0298526     0.0963358   -0.00122401    -0.0492403    0.00184223     0.0233854   -0.00530737   0.000408006  -0.000263371 -7.29629e-005 -4.10066e-005
      0.26618     0.0279068     0.0995475   -0.00330369    -0.0479658    0.00216952     0.0244135   -0.00364056   0.000404617   -0.00026246 -7.02369e-005 -3.30143e-005
     0.257563      0.022424     0.0872512    -0.0117943    -0.0467929    0.00989236     0.0265961  -0.000856386  -0.000156006 -7.82481e-005  -0.000650954   0.000404167
     0.247013     0.0213553     0.0870112   -0.00271899    -0.0497598    0.00982952     0.0256537   -0.00190486   0.000189999   0.000565326  2.87509e-005  -0.000174543
     0.251595     0.0201751     0.0811391    -0.0091485    -0.0480729    0.00774959     0.0266319  -0.000514798   0.000459902   0.000278596  -0.000332111   0.000491744
     0.253362     0.0224457     0.0755629    -0.0116945    -0.0460697    0.00842688     0.0280862  -0.000149779   0.000300438   0.000481724    0.00024069    0.00031021
     0.251496     0.0221951     0.0782205     -0.013861    -0.0437368    0.00856584     0.0281916   -0.00104594   0.000458543   0.000288088  -0.000329981   0.000494511
     0.248637     0.0182555     0.0849204    -0.0135254    -0.0457208    0.00876751     0.0271606   -0.00267499    0.00023265  -0.000830644    0.00021594   0.000384902
     0.256241     0.0166704     0.0860813    -0.0109618    -0.0493877    0.00707333     0.0286091   -0.00351523   0.000179601  -0.000201544  -0.000256242    0.00041677
     0.262565     0.0139952     0.0877305   -0.00716526    -0.0530472     0.0044779     0.0270077   -0.00770823   0.000571659  -0.000441807  -0.000649372   0.000136721
      0.26339      0.014129     0.0821518    -0.0102499    -0.0513554    0.00698859     0.0267462    -0.0077225  -0.000307318    0.00013534 -8.32963e-005   0.000189192
     0.263915      0.016124     0.0758128    -0.0111574    -0.0484763    0.00903134     0.0265787   -0.00463473   0.000412823  -0.000247353 -7.81532e-005 -3.14678e-005
     0.256989     0.0184636     0.0723126   -0.00391386    -0.0499667    0.00950684      0.024993   -0.00473344 -2.50466e-005 -3.94301e-005  -0.000690207  -0.000531903
     0.247104      0.013767     0.0775447  -0.000445576    -0.0518263     0.0108766     0.0246991   -0.00572266   0.000465025  -0.000368587  -0.000866358   -0.00032855
     0.255384     0.0172529     0.0832137   -0.00287952    -0.0516184    0.00880672     0.0243754   -0.00600003   0.000410843  -0.000254573 -7.82752e-005 -4.33759e-005
     0.260807     0.0242453     0.0679056    -0.0142266    -0.0418387     0.0101635     0.0253649  -0.000734965   0.000252774 -6.02577e-005   0.000495906  -0.000196396
     0.260518     0.0239474      0.056544    -0.0287141    -0.0333735     0.0103105     0.0265369    0.00212289   0.000867456   0.000309848   0.000820455 -8.44268e-005
     0.271329       0.02595     0.0564077    -0.0432937    -0.0251072    0.00458235     0.0262906    0.00372543    0.00075141  -0.000381951   0.000327321  5.63417e-005
     0.267036     0.0240098     0.0761651    -0.0359908    -0.0291687    0.00190444     0.0258738    0.00181477   0.000917181   0.000202798  4.52769e-005  -0.000365812
     0.257222     0.0248253      0.079092    -0.0147465    -0.0352933    0.00124364     0.0237388  -0.000928796   0.000462366   0.000271066  -0.000327368   0.000500286
     0.252982     0.0266207     0.0725663   -0.00470159    -0.0379475   0.000124427     0.0220715   -0.00142361  -0.000132871   0.000674002   -0.00036869  -0.000189134
     0.246471     0.0241047     0.0747121  -0.000236699    -0.0429675   0.000839798     0.0205235   -0.00393823  -0.000690936   0.000333905   0.000305631     0.0004633
     0.245368     0.0238592     0.0678724   -0.00267833    -0.0439717    0.00137699     0.0214084   -0.00291308  -0.000567091   0.000378459   0.000274143  -0.000448047
     0.249886     0.0191088     0.0778986   -0.00619133    -0.0476591    0.00020973     0.0219604    -0.0044883 -7.49744e-005  5.93328e-005  9.95714e-005  -0.000244262
     0.261071      0.014343     0.0810857     -0.015762    -0.0454635   -0.00288338     0.0208442   -0.00389958  8.79336e-005  -0.000136602  -0.000470796 -4.99136e-005
     0.268691    0.00309258     0.0909391    -0.0154035    -0.0498456   -0.00571198     0.0217021    -0.0055922    0.00036621   0.000366241  -0.000543752  3.95589e-006
     0.276627    -0.0115713      0.109437   -0.00810539    -0.0582783    -0.0057405      0.022872   -0.00852972   0.000747775  -0.000382648   0.000323821 -2.98923e-005
     0.276282    -0.0372989      0.101251    -0.0248009    -0.0540561    0.00238661     0.0238554   -0.00643542 -2.51261e-005 -1.32909e-005  -0.000679152  -0.000530223
     0.268312    -0.0722426     0.0927175    -0.0344005    -0.0530304    0.00606272     0.0268571   -0.00551398  -0.000638791   0.000287508  -0.000472697   0.000185319
     0.263195     -0.117354     0.0946101    -0.0387186    -0.0589096     0.0110152     0.0274291   -0.00617524   8.1456e-005 -7.34896e-005  -0.000468072 -5.27964e-005
     0.251711     -0.167178     0.0832955    -0.0455894    -0.0618271     0.0173324     0.0271453   -0.00435058   0.000697829   0.000294899  -0.000150847  4.58015e-005
     0.248024     -0.220551     0.0689423    -0.0595696    -0.0616772     0.0171548      0.026932   -0.00340374   0.000374849   0.000432216  -0.000550416  3.34798e-005
      0.23073     -0.278527     0.0810302    -0.0633831     -0.073909     0.0185451     0.0259097   -0.00753024   0.000216701   0.000650925  2.28077e-005  -0.000173204
     0.200725     -0.320774      0.080913    -0.0461629    -0.0893694     0.0162316      0.022879    -0.0128358  5.19264e-005  5.56273e-005   0.000299807   0.000195947
     0.191197      -0.35493     0.0593761    -0.0576223    -0.0888816     0.0118075     0.0219045    -0.0113176   0.000625266    0.00104116   0.000145434   0.000336019
     0.162051     -0.376867     0.0379032    -0.0571462    -0.0896782     0.0119854     0.0195371   -0.00940724   0.000635661    0.00102294   0.000137993   0.000343464
     0.120056     -0.386194    -0.0266803    -0.0658634    -0.0836553      0.016431     0.0174522   -0.00113191 -3.96274e-006  8.27628e-005  5.58943e-005   -0.00021114
     0.102919     -0.366135    -0.0879588    -0.0588593    -0.0857377     0.0132278     0.0157158    0.00209241    0.00046564   0.000335997  -0.000616795  4.83116e-005
    0.0859891     -0.335813     -0.120771    -0.0358157    -0.0908861     0.0015871     0.0115681    0.00173184   -0.00051117   0.000160102  -0.000567565    0.00020484
    0.0656327     -0.328158     -0.147563    -0.0433996    -0.0856103   -0.00418286    0.00874408    0.00773291  9.42143e-006   0.000582362   -0.00046336  -0.000146826
    0.0237185     -0.339281     -0.149368    -0.0413168    -0.0918667    -0.0105776    0.00678116    0.00725244  -0.000423134      0.000274   0.000183525  -0.000403626
   -0.0527385     -0.359233     -0.160536    -0.0331375    -0.0956211   -0.00886737    0.00441573    0.00684667   -0.00054211   0.000214884   0.000210712   0.000503035
    -0.146505     -0.363147     -0.197765    -0.0121977     -0.100664   -0.00808012    0.00163895    0.00843045  2.95589e-005 -3.55829e-006   0.000776338  7.36471e-005
    -0.256261     -0.367954      -0.21588    0.00510144     -0.102894    -0.0131974   -0.00247412     0.0108656   0.000648398  -0.000335213   0.000567082  -0.000635987
    -0.366714     -0.376918      -0.20486     0.0172576     -0.104247    -0.0145799   -0.00233712     0.0120908   0.000300829  -0.000217863   0.000182628  -0.000668318
    -0.511545     -0.382661     -0.185657     0.0155218     -0.100757    -0.0156764   -0.00679664     0.0106342  -0.000114395  -0.000241768  -0.000948756 -7.15294e-005
    -0.676019     -0.400505     -0.180772   -0.00188944    -0.0846983   -0.00450504   -0.00633496     0.0136431  8.58079e-005      0.000388  -0.000209768   0.000299723
    -0.852297     -0.456259     -0.165475    -0.0366258    -0.0727458    0.00536132   -0.00630898     0.0171969   0.000676585   0.000141535  -0.000382747  -0.000374863
     -1.07167     -0.489375     -0.126286    -0.0520654    -0.0699995    0.00614779    -0.0132797     0.0171859  -0.000681217   0.000164964  -0.000673153  -0.000228905
     -1.29173     -0.530036    -0.0996245    -0.0341693    -0.0700987     0.0169134    -0.0225422     0.0181722  6.18622e-005  -0.000208655   0.000354599   0.000277325
     -1.49002     -0.598377    -0.0844237    -0.0440598    -0.0696134     0.0232967    -0.0305599      0.019573 -7.24324e-006   0.000417913 -9.31048e-005   0.000319413
      -1.6625     -0.602459    -0.0699049    -0.0409339    -0.0760332     0.0291039    -0.0327664     0.0144207   0.000418923  -0.000434595  3.91915e-006 -1.17337e-005
      -1.8488     -0.555871    -0.0414642    -0.0132779    -0.0814216     0.0395516    -0.0360388    0.00947356  -0.000492724   0.000137943   0.000590644 -8.17434e-006
     -1.99411     -0.453444    -0.0295563   -0.00580878    -0.0772648     0.0582919    -0.0320552    0.00745865   0.000354698  -0.000405117  4.42516e-005 -7.52847e-005
     -2.11748     -0.361664    -0.0101845    0.00112934    -0.0912254     0.0856492    -0.0251853  -0.000190417  -0.000128662  -0.000902934  -0.000836996 -2.62562e-005
     -2.22854     -0.310902     0.0153243   -0.00209377     -0.102285      0.106904     -0.022029   -0.00460019  -0.000357044   0.000762003   -0.00043042  -0.000794561
     -2.31812     -0.231558     0.0219171    -0.0068446    -0.0971239      0.124004     -0.016617    -0.0043983  -0.000782359   0.000258079  -0.000310108  5.91834e-005
     -2.42157     -0.121578     0.0500656 -6.39725e-005    -0.0950132      0.126443    -0.0130909    -0.0100764  3.06729e-005   0.000609193    0.00021812  -0.000330855
     -2.47826    0.00512686      0.106964  -0.000793657    -0.0936885       0.11993    -0.0108285    -0.0158962  -0.000331209   0.000260706    0.00111021  -0.000139195
     -2.49614      0.156901      0.153244    0.00559999    -0.0946962      0.109107   -0.00626479    -0.0233012   -0.00101852   0.000554009   0.000341039  -0.000228718
     -2.50087      0.328751      0.137252    0.00375581    -0.0888643      0.100995   -0.00616458     -0.021842  -0.000302732  -0.000617287   6.1707e-005   0.000136322
     -2.54922       0.51396       0.12714    -0.0124467    -0.0721388      0.104824  -0.000198759    -0.0166608  3.01812e-005  5.20538e-005    0.00076128  -0.000399204
     -2.60562      0.691703      0.169718    -0.0293244    -0.0546919      0.112698     0.0140059    -0.0163826   -0.00019037  5.49584e-005  -0.000166658  -0.000228281
      -2.6076      0.891688      0.205249    -0.0228977    -0.0521727     0.0910953     0.0186463    -0.0226036   -0.00020137  6.82095e-005  -0.000146483  -0.000261391
     -2.58752       1.17611      0.188556   -0.00247353    -0.0399818     0.0514198     0.0173493     -0.019875 -7.54128e-005 -9.50643e-005  6.61118e-005    0.00021145
     -2.54449         1.512      0.136715   -0.00935604     -0.011907     0.0272775      0.019538   -0.00974266   0.000119495   0.000432735  -0.000222228  -0.000139767
     -2.49525       1.85054     0.0614207   -0.00673741    -0.0024666   -0.00551724     0.0210529   -0.00622813  -0.000110354  -0.000126811  -0.000170039  -0.000186301
     -2.45792       2.13446    -0.0210121     0.0300945    -0.0135007    -0.0304666      0.022476   -0.00843855  -0.000339121 -4.87324e-005    0.00039062   0.000511459
     -2.37928       2.23356    -0.0444235    -0.0023619    -0.0346008     -0.029208     0.0236303   -0.00664678   -0.00030696 -2.01924e-005   0.000374137    0.00052638
     -2.25047       2.18058     0.0175737      -0.10162    -0.0483487    -0.0248339      0.018272    -0.0055493   0.000648348   0.000843957   -0.00013932   0.000443549
      -2.0996       2.16327     0.0647361     -0.126614    -0.0489069    -0.0355233  -0.000500232   -0.00414901  -0.000109083   0.000664346    0.00011656   0.000192505
     -1.87772       2.18658     0.0990112      -0.10415    -0.0321581    -0.0482616    -0.0258552    0.00105621    0.00073058  -0.000545933  -0.000203551  -0.000339747
     -1.58734       2.18447      0.141349    -0.0803351     -0.023394    -0.0486038    -0.0425336    0.00248905  -0.000108531  -0.000269335  -0.000196337   0.000820865
      -1.2782       2.05489       0.20167     -0.111896    -0.0474495    -0.0453908    -0.0614281   -0.00123611  -0.000188033  -0.000155582    -0.0004262    0.00035196
    -0.972247       1.89126      0.238077     -0.152378    -0.0633946    -0.0362827    -0.0802479    0.00159749   0.000348595   0.000310724  -0.000338516  7.90901e-006
    -0.616435       1.83802      0.193372      -0.11448    -0.0541956    -0.0190348    -0.0891387     0.0110625   0.000547619   0.000809707  -0.000683703  -0.000357117
    -0.231736       1.77025       0.16822     -0.076144    -0.0475617   -0.00475338    -0.0940867     0.0172348  -0.000432281   0.000108279   0.000587072  8.90894e-005
    0.0972016       1.71686      0.129168    -0.0311875    -0.0367802   -0.00314482     -0.101626     0.0244669  -0.000456793 -1.27338e-005  -0.000464997   -0.00063784
     0.483417       1.74319     0.0775008     0.0539677     -0.015083     0.0278595    -0.0931902     0.0240778  -0.000196185  -0.000872636   0.000367728   0.000251129
     0.908792       1.77536     0.0689187      0.122074   0.000539189     0.0951029    -0.0604588      0.011729   0.000360697  -0.000407362   0.000646441   0.000282585
       1.2114       1.77451     0.0640888      0.155057    0.00829665      0.126117    -0.0371129    0.00645865  1.28865e-006  -0.000214943   0.000222693   0.000236671
      1.41744       1.71959     0.0788955      0.144478    0.00672253      0.124431    -0.0193162    0.00227483  -0.000495716   0.000180639   0.000392656  2.14717e-005
      1.53907        1.6298      0.120717     0.0953856   -0.00182704      0.115949   -0.00360335    0.00099708  5.93035e-005   0.000616025  -0.000268617   -0.00062807
      1.56686       1.55078      0.136158     0.0580956   -0.00945382     0.0915685   -0.00600975    0.00391546    0.00068094   0.000202541   -0.00022623  8.02342e-005
      1.56269       1.47994      0.148651     0.0285353    -0.0115731      0.063318    -0.0109247    0.00626753  -0.000136476  -0.000646423   0.000533849   0.000707103
      1.54129       1.41414      0.144964   -0.00168291    0.00149263     0.0400668    -0.0133488     0.0124349  -0.000174361  -0.000688157  -0.000452822 -2.17301e-006
      1.47368       1.32302      0.149615    -0.0180735     0.0068071     0.0240918    -0.0160348     0.0164784    0.00044278  -0.000340268  -0.000118905   0.000111171
      1.35183       1.18893      0.178617    -0.0444936   -0.00155521     0.0154782    -0.0157332      0.013308   0.000383632  -0.000191631    0.00068912   0.000387981
      1.18347       1.03819      0.181166    -0.0734326    -0.0115253     0.0164519     -0.016427     0.0127186    0.00066544  -0.000315381   0.000101288  -0.000340067
      1.01456      0.890427      0.197043    -0.0860916    -0.0201458     0.0142906    -0.0157244     0.0119703 -6.45688e-005  7.74339e-005   0.000113201  -0.000111598
     0.857877      0.743384      0.220684    -0.0917302    -0.0313655     0.0105577    -0.0174028    0.00600124   0.000593308   0.000352552  -0.000334793  -0.000340175
     0.697266      0.610055      0.219396     -0.090299    -0.0482971     0.0236743    -0.0178895    0.00262653  8.07482e-005 -8.04818e-005   -0.00044115  1.54426e-005
      0.57666      0.510912      0.182819    -0.0998178    -0.0560344     0.0316457     -0.013569    0.00083539   0.000208819   0.000635199  5.16482e-005  -0.000114271
     0.501683      0.424346      0.160898     -0.103883    -0.0682758     0.0258526    -0.0130652   -0.00157515   0.000505068     0.0011302 -3.06543e-005 -6.54512e-005
     0.440565      0.358407      0.144659    -0.0965333    -0.0824586     0.0212655    -0.0123397   -0.00622043   0.000345746   0.000543662   0.000246171   0.000311724
     0.385802      0.305144     0.0971985     -0.109067    -0.0840737      0.023124   -0.00900495   -0.00592758   0.000592519   0.000505864   0.000417228  -0.000125935
     0.335646      0.258071     0.0715037     -0.112588     -0.086188      0.026063   -0.00734276   -0.00534326 -1.14526e-005   0.000141055  8.90034e-005  -0.000210944
     0.288194      0.217254     0.0671121    -0.0957378    -0.0917871     0.0279083   -0.00754923   -0.00799537   0.000320034 -5.97573e-007     0.0004804  -0.000208891
     0.260327      0.176238     0.0820288    -0.0840833    -0.0990021     0.0261784    -0.0076228    -0.0105319 -1.91886e-005   0.000128593   8.6355e-005  -0.000254997
     0.231641      0.152199     0.0898178    -0.0698489    -0.0944197     0.0201079   -0.00672273   -0.00902146 -2.82842e-005   0.000106758  9.13693e-005  -0.000255479
      0.22502      0.127165     0.0855856    -0.0768415    -0.0869461     0.0159282   -0.00542955   -0.00636306   0.000477635   0.000555334   0.000204439  -0.000619748
      0.20143     0.0946875     0.0800288    -0.0827309    -0.0835724     0.0251675    -0.0029357   -0.00302984   0.000457337  -0.000219097 -7.92878e-005 -8.90126e-006
     0.148408     0.0619641     0.0639986    -0.0749873    -0.0857607     0.0398295   -0.00162114   -0.00114182  -0.000481505   0.000329826  -0.000515461  -0.000713051
      0.13085     0.0245794     0.0702669    -0.0751986    -0.0895868     0.0413399   -0.00129926  -0.000989558  -0.000538639   0.000445273   0.000272283  -0.000429864
     0.117571   -0.00259275      0.094017    -0.0643188    -0.0914941     0.0390965  -0.000280182   -0.00414335 -7.05663e-005  -0.000664103  -0.000184202   0.000353102
     0.107986    -0.0104611     0.0963126     -0.053801     -0.091483     0.0357886  1.65652e-005     -0.004873  4.60139e-005  2.02832e-005   0.000314481   0.000222003
    0.0986884    -0.0148032     0.0713044    -0.0501351    -0.0833555     0.0358005   0.000956384   -0.00189124  -0.000122296 -6.71496e-005  -0.000660776   0.000398002
     0.092836    -0.0229815     0.0579528    -0.0444968    -0.0819886       0.03946    0.00186245   -0.00228975  -0.000493225   0.000304643  -0.000518263    -0.0007318
     0.099443    -0.0302477     0.0599018    -0.0429986     -0.083753     0.0392443    0.00186538  -0.000215064  -0.000268723   0.000905137   0.000192627  -0.000376905
      0.10319    -0.0333178     0.0570024     -0.034678    -0.0829479     0.0373535    0.00150019    0.00175625   -0.00115983  2.62542e-005 -5.76869e-005  -0.000524251
     0.112359    -0.0393534     0.0508846    -0.0314191    -0.0820626     0.0372152    0.00161999   -0.00143355    0.00028231  -6.7587e-005   0.000478761  -0.000213244
     0.109217    -0.0472566     0.0392423    -0.0337186     -0.077465     0.0384905    0.00244737  -0.000611179  -0.000436039   0.000305583   0.000470872  2.95021e-005
     0.107359    -0.0532867     0.0396049    -0.0281971     -0.078622     0.0370061    0.00379154   -0.00101353  -0.000662238  -0.000305127  -0.000241835  -0.000323993
     0.117785    -0.0559857     0.0446777    -0.0269508    -0.0791839     0.0328616    0.00454043   -0.00254464  -0.000209738   0.000261205    0.00065401   -0.00042834
     0.122706     -0.059728     0.0402243    -0.0219849    -0.0816946     0.0315627     0.0052314   -0.00503915  -0.000485376   0.000281738  -0.000532374  -0.000751437
     0.132787     -0.067234      0.045886     -0.026905    -0.0804564     0.0301111     0.0050573   -0.00613421  -0.000154417   0.000809482   0.000394605  6.66208e-005
     0.138192    -0.0757908     0.0478303    -0.0376623    -0.0771024     0.0275403    0.00553328    -0.0035307  -0.000993266   0.000490753    -0.0001062   0.000441668
     0.135718    -0.0845486     0.0476151    -0.0383397    -0.0750793       0.02774     0.0055063   -0.00302429   -0.00110057   0.000577748  -0.000317827 -2.54755e-005
     0.127845    -0.0880133      0.043927    -0.0448594     -0.068078     0.0306622     0.0044729   -0.00037924  -0.000769777   0.000444633   8.1558e-005  1.70537e-005
     0.113085    -0.0918173      0.028682    -0.0460084    -0.0605618     0.0357242    0.00494018    0.00365916  -0.000438282   0.000303514   0.000476553  6.29064e-005
       0.1193     -0.100129      0.027988    -0.0512646    -0.0597233     0.0323279    0.00648465    0.00488683  -0.000661584  -0.000302533  -0.000233949  -0.000277302
     0.121227     -0.104434     0.0406255    -0.0383553    -0.0696066     0.0263847    0.00514743    0.00226737  -0.000541255   0.000382688   0.000262534  -0.000422563
     0.131755     -0.108472     0.0424888    -0.0397277    -0.0716953     0.0233386    0.00606974    0.00173176  -0.000485042   0.000273703  -0.000523956  -0.000709895
     0.135241     -0.115599     0.0483178    -0.0370527     -0.073676     0.0186983    0.00626444  -0.000960481   0.000234459   0.000552941  1.08866e-005  -0.000164214
     0.120147       -0.1208     0.0513357    -0.0229834    -0.0784487     0.0213712    0.00449346   -0.00169545  -0.000501595   0.000131094  -0.000284857   0.000650772
     0.129461     -0.120677     0.0561416     -0.030148    -0.0762154     0.0172867    0.00315229   -0.00110916   0.000114662  -0.000155051  -0.000488071 -4.78053e-005
     0.128914     -0.125726     0.0618922    -0.0290802    -0.0763365     0.0163254    0.00392544   -0.00311957   0.000605487   -0.00047876  -0.000663304   0.000153949
     0.121642     -0.133008     0.0548942    -0.0241968    -0.0783017     0.0203729    0.00542457   -0.00208414   0.000550454  -0.000370088   0.000118882   0.000439683
     0.117699     -0.132535     0.0385342    -0.0362272    -0.0702915     0.0240186    0.00690795    0.00322622  -0.000661898   0.000333526   0.000290723   0.000496278
     0.110291     -0.132614     0.0189996    -0.0461994    -0.0607621     0.0276822    0.00745052     0.0083821  -0.000378685   0.000172111  -0.000312278  -0.000203117
     0.120897     -0.136947     0.0211203    -0.0592012    -0.0577554      0.025597    0.00737715     0.0112151  -0.000485419   0.000914715  7.57512e-006   0.000139869
     0.134356     -0.144582       0.02037     -0.072405    -0.0558565     0.0210792    0.00693693     0.0102816   0.000574788   0.000419696   0.000411467 -6.55676e-005
     0.122117     -0.148362     0.0395514    -0.0455892    -0.0654775     0.0159505    0.00593575    0.00418763   0.000129796   0.000627615  -0.000198879   -0.00060552
     0.119982     -0.144916     0.0602721    -0.0240706    -0.0720577    0.00880917    0.00548177    -0.0010483  -0.000169653 -9.60347e-006   0.000118169   0.000681567
     0.124811     -0.148552      0.073345    -0.0160715    -0.0776372    0.00628618    0.00445405   -0.00394933   0.000496707  -0.000407815  -0.000874179  -0.000328192
     0.117817     -0.159641     0.0737429    -0.0228513     -0.078751     0.0121708    0.00461461   -0.00336424  -0.000171515  -0.000648942   -0.00040865  -0.000126182
     0.123224     -0.161996     0.0646492    -0.0343819    -0.0724143    0.00924212    0.00600255   -0.00178612  -0.000327429  -0.000445193     0.0001663  -0.000295717
     0.120548     -0.159914     0.0598762    -0.0284308    -0.0711465    0.00677441    0.00592443  -0.000428552   0.000885001  1.83588e-006  -0.000734857   0.000230036
     0.115864     -0.161249     0.0597543    -0.0230242    -0.0707724     0.0071071    0.00472118   0.000823903  5.75565e-005   -6.338e-005   0.000301738   0.000243438
     0.122825      -0.16309     0.0645266    -0.0277758    -0.0694862     0.0075343    0.00610175    0.00106958  -0.000118539  -0.000122396  -0.000664328   0.000408154
     0.110702     -0.165982     0.0288647    -0.0471377    -0.0557885     0.0165384    0.00758075    0.00812685   0.000338952    0.00044174   0.000228202    0.00035752
     0.109415     -0.166944     0.0316284    -0.0404457    -0.0558185     0.0160848    0.00639034    0.00854382  -0.000381199    0.00015457  -0.000306709  -0.000203292
     0.122495     -0.170442     0.0586749    -0.0366051    -0.0636476     0.0106256    0.00579758     0.0052802   0.000719709   0.000196148  -0.000157086  7.53486e-005
     0.125011      -0.17469      0.062908    -0.0505881    -0.0608601    0.00845132    0.00703862    0.00331702   0.000614322   0.000306103  -0.000363956  -0.000394491
     0.112873     -0.175129     0.0544131    -0.0583548     -0.055917      0.013795     0.0076569    0.00609748   0.000491558    0.00026542  -0.000332986   0.000539512
     0.108118     -0.173652     0.0416575    -0.0600908    -0.0498766      0.019866    0.00724048     0.0105346   0.000559194  -0.000239582  -0.000106262  -0.000863598
     0.116469      -0.16299     0.0629916    -0.0444519    -0.0576156     0.0127266    0.00433849    0.00645632   0.000542772  -0.000382889    0.00013605   0.000494135
     0.108763     -0.158763     0.0670326    -0.0258922    -0.0654598     0.0108137   0.000835116    0.00269989     -0.000333  -0.000476521   0.000168681  -0.000279151
    0.0885712     -0.166912     0.0556628    -0.0191243    -0.0674895     0.0160652    0.00072057    0.00297982   0.000213007  -0.000274514  -0.000271626   0.000437143
    0.0817377     -0.170236     0.0515737    -0.0281985    -0.0620311     0.0182506    0.00181216    0.00452837  -0.000403012  1.97442e-005 -6.14911e-005     0.0011566
     0.088713     -0.170669     0.0570098    -0.0371915     -0.058501     0.0150533    0.00375438    0.00390316   0.000875685  2.64161e-007  -0.000726595   0.000257806
     0.100944     -0.171379     0.0742541    -0.0368172    -0.0610922    0.00935497    0.00254255    0.00292147   0.000207784  -0.000253061  -0.000258062    0.00044851
      0.10186     -0.171959     0.0756396    -0.0437352    -0.0581987    0.00869293    0.00301862    0.00111809  -0.000231177  -0.000536428   0.000392604   0.000197613
     0.091888     -0.176107     0.0742461    -0.0489397    -0.0589321     0.0116134    0.00410256    0.00130487    0.00076712  -0.000404815   0.000325719  2.85091e-005
    0.0871562     -0.175202      0.072376     -0.039727    -0.0586256     0.0108215    0.00253331    0.00239297  -0.000232442  -0.000544288    0.00039145   0.000200043
    0.0764097     -0.179156     0.0893871    -0.0265773    -0.0665518    0.00793017    0.00185325   -0.00198526   0.000429378  -0.000290907 -7.16702e-005 -2.62847e-005
    0.0814869     -0.193348      0.125534    -0.0316039    -0.0772065    0.00692792    0.00127628    -0.0074435  8.84224e-005  -0.000128477  -0.000458151 -7.74123e-005
    0.0793516     -0.188478     0.0944611    -0.0365919    -0.0664934    0.00910893    0.00126571   -0.00280806   0.000429564  -0.000276519 -6.83118e-005 -2.42452e-005
     0.080941     -0.186548     0.0615979    -0.0547681    -0.0542746     0.0130257    0.00277894    0.00256432   0.000611185   0.000306895  -0.000358599  -0.000392659
    0.0809613      -0.19453     0.0713619    -0.0578373    -0.0575982     0.0141505    0.00392083    0.00281154   0.000486229   0.000271842  -0.000326014   0.000523883
    0.0693701     -0.192164     0.0788539    -0.0364495    -0.0625717    0.00952654    0.00326268   0.000746908   0.000431344  -0.000287519  -7.1097e-005 -7.92096e-006
    0.0811449     -0.189881     0.0891108    -0.0377983    -0.0622939    0.00402101    0.00175178    0.00115009   0.000537694  -0.000380806   0.000144839   0.000464858
    0.0736398     -0.190319     0.0706697    -0.0434316    -0.0563946    0.00676617    0.00168544    0.00292785  -0.000175882  -0.000660469  -0.000392555 -8.00446e-005
    0.0731183     -0.187655     0.0549226    -0.0482799    -0.0479724     0.0069577    0.00272744    0.00583922    0.00043876  -0.000302329 -7.17485e-005  2.73947e-005
    0.0705637     -0.190414     0.0799957    -0.0316651    -0.0592708    0.00333909   0.000446081    0.00152392    0.00048567   0.000232163  -0.000328433   0.000503411
    0.0562707     -0.198691     0.0999229    -0.0223123    -0.0664703     0.0038042   -0.00183189   -0.00210468   0.000600708  -0.000236027   0.000901467  -0.000190573
    0.0602812     -0.196095     0.0849932    -0.0401326    -0.0550626    0.00539333  -0.000115751    0.00135587  -6.3416e-005  3.51827e-005   0.000112599  -0.000210672
    0.0583392     -0.192984     0.0889094    -0.0352864    -0.0562306   0.000954044  -0.000425992  -0.000456691  4.35547e-005 -5.65026e-005   0.000325441   0.000249291
    0.0642122     -0.194515      0.103442    -0.0253616      -0.06281   -0.00432099   -0.00130048   -0.00435704    0.00037819  -0.000840162   0.000193025   -0.00054437
    0.0750378     -0.195269     0.0960993    -0.0305637    -0.0610742   -0.00554789   0.000254037   -0.00379197    0.00010097  -0.000681691   0.000794054   0.000192893
    0.0778981     -0.195916      0.125534    -0.0120674    -0.0726496    -0.0129989   -0.00329101    -0.0084274   0.000936183   0.000144133  4.44558e-005  -0.000446701
    0.0775055     -0.197074      0.143419    0.00172692    -0.0766892    -0.0181513   -0.00367375    -0.0118751    0.00109076 -6.00965e-005  -0.000526501  -0.000284991
    0.0762209     -0.197779      0.126227    -0.0167732     -0.065738    -0.0149277   -0.00267875   -0.00861058  9.46876e-005  -0.000172639  -0.000456069 -8.39366e-005
     0.071028     -0.198265      0.106104    -0.0288137    -0.0595977   -0.00927238   -0.00155718   -0.00485188   0.000658671  -0.000344192   0.000121335  -0.000479448
     0.044079     -0.198002     0.0541969    -0.0475114    -0.0427341    0.00929787  -0.000339674    0.00645449 -3.77503e-006 -9.07774e-005  -0.000677135  -0.000463934
    0.0197049     -0.197222     0.0351128    -0.0502142     -0.032867     0.0189078    -0.0010507     0.0120354  -0.000554385   0.000339809   0.000285451  -0.000360458
  -0.00463998     -0.199482     0.0324801     -0.036603    -0.0360637     0.0227846  -0.000842356     0.0120762  -0.000504655   0.000217492  -0.000503652   -0.00065471
  -0.00195022     -0.204294     0.0429271    -0.0425389    -0.0356339     0.0218605  -0.000253351     0.0130651  -0.000629652   0.000179992  -0.000468764   0.000268216
    0.0249964     -0.203688     0.0647089    -0.0509691    -0.0364594    0.00751168  -0.000227835     0.0101174 -2.56194e-005  -0.000879884   -0.00095374   0.000147034
    0.0291478     -0.205966     0.0685554    -0.0445696    -0.0413468    0.00389131   0.000346928    0.00890591   0.000200786  -0.000276431  -0.000244154    0.00048447
    0.0278459     -0.210904     0.0812528    -0.0358543    -0.0443701    0.00217218    0.00031123    0.00789062   0.000701385   0.000172328  -0.000133045  9.11826e-005
    0.0357491      -0.21275     0.0793851    -0.0468426    -0.0430277    0.00250622  -0.000276675    0.00768106 -7.98912e-005  -0.000765714  -0.000166826   0.000416391
    0.0342868     -0.217039     0.0797302    -0.0458312    -0.0455459    0.00428022   0.000534506    0.00862273   0.000252086  -0.000896963   0.000228354   0.000443067
    0.0216992     -0.218148     0.0832831    -0.0362896    -0.0480151    0.00326415   0.000787424    0.00777345   0.000647072   0.000287735   0.000652732   0.000373711
    0.0228498     -0.217821     0.0783014     -0.040814     -0.047043    0.00362805   0.000266104    0.00795879  9.20964e-005  -0.000186724  -0.000455886   4.4541e-006
    0.0318791      -0.21525     0.0749824    -0.0430851    -0.0444727  -0.000662163  -0.000220867    0.00902827   0.000202153  -0.000282051  -0.000243641   0.000482225
    0.0320674      -0.21137     0.0752731    -0.0337729    -0.0466741   -0.00718269   -0.00261608     0.0080523    0.00120641  -0.000178963  -0.000315097   0.000300485
    0.0147753     -0.219528     0.0886913    -0.0214503     -0.053808   -0.00478141   -0.00284581    0.00367123   0.000587698  -0.000537296  -0.000636324   0.000183753
    0.0101107     -0.224251     0.0884623     -0.026311    -0.0514347    -0.0051365   -0.00156061    0.00463527    0.00114444 -5.65564e-005   0.000474183   0.000564295
    0.0213264     -0.222445     0.0844194    -0.0350598    -0.0474753    -0.0107143   -0.00322424    0.00572773  4.59359e-005 -9.51917e-005   0.000330429   0.000277012
    0.0245533     -0.223863     0.0855049    -0.0319856    -0.0490801    -0.0114061   -0.00404445     0.0045188   0.000819507  6.80988e-005   7.7317e-005   0.000543861
    0.0181578     -0.223841     0.0780403    -0.0325516    -0.0469058    -0.0104155   -0.00524571     0.0054415   0.000596916  -0.000545748  -0.000636073   0.000200953
    0.0100169     -0.225567     0.0826187    -0.0247697    -0.0486546   -0.00887266   -0.00687339    0.00437209   0.000380133  -0.000240151    0.00072265    0.00029085
  -0.00244274     -0.224296     0.0700757    -0.0275511     -0.043192   -0.00367015   -0.00690525    0.00702313   -0.00028692  1.85839e-005 -7.02547e-005   0.000256132
   -0.0144855     -0.224354     0.0590587    -0.0316025    -0.0390337   -0.00013485   -0.00681451    0.00962415  -0.000898626  -0.000349356  -0.000392563    0.00018266
   -0.0114952     -0.226372     0.0872617    -0.0200217    -0.0477677   -0.00677318    -0.0065164    0.00381452 -2.65811e-005  -0.000264064  -0.000426825   0.000892035
    -0.008432     -0.231121     0.0901126    -0.0267237    -0.0488894   -0.00852198   -0.00612766    0.00321906   0.000814468  6.60229e-005  8.01224e-005   0.000534991
   -0.0132764     -0.229404     0.0959483    -0.0277522    -0.0518575   -0.00564286   -0.00596246    0.00415323   0.000319679  -0.000250188  -0.000269115  -0.000467556
   -0.0201776     -0.226992      0.103505    -0.0208553    -0.0519736   -0.00885147   -0.00717888     0.0022394  -0.000175783  7.54249e-005  -9.0031e-005   -0.00068995
   -0.0329508     -0.235526      0.114771    -0.0128979    -0.0543424    -0.0106104   -0.00740875    0.00145944 -2.11854e-005  -0.000128876  -0.000660544  -0.000513845
   -0.0513278     -0.237691      0.125206   -0.00368167    -0.0562253   -0.00944258   -0.00706601    0.00127244  -0.000803843   0.000353206   0.000122484 -1.51678e-006
   -0.0511206     -0.236331      0.109421    -0.0196377    -0.0489199    -0.0102285    -0.0055189    0.00397208  -0.000744012   0.000247617  -0.000662524  -0.000263083
   -0.0485374      -0.23848     0.0958502    -0.0332674    -0.0429178   -0.00835543   -0.00447026    0.00666539  -0.000300619  3.43174e-005 -5.36682e-005   0.000254168
    -0.066298     -0.242992     0.0988433    -0.0235256    -0.0458358   -0.00334727   -0.00582839    0.00539769  -0.000411357   0.000118897  -0.000267623   -0.00022851
   -0.0750884     -0.244383      0.111433    -0.0140595    -0.0497341   -0.00548787    -0.0067138    0.00292753  -0.000190432   0.000723804   0.000445826   0.000102104
   -0.0708309     -0.243985      0.102886    -0.0288121    -0.0401274   -0.00750924   -0.00551475    0.00614771   -0.00079861  -0.000288443  -0.000400075   -0.00075431
   -0.0699244     -0.243691     0.0942886    -0.0388018    -0.0336076   -0.00733779   -0.00561494     0.0097805  -0.000478147  -0.000555515   0.000239538   0.000680968
   -0.0622254     -0.239817       0.09466    -0.0416968    -0.0322047    -0.0122961   -0.00691436    0.00908211  -0.000407035   0.000113564  -0.000259525  -0.000197322
   -0.0694339     -0.243814      0.103338    -0.0330653    -0.0363918    -0.0147215   -0.00681272     0.0084534  -0.000903393   0.000437946 -8.16859e-005  -0.000417903
   -0.0832043     -0.246803      0.122279   -0.00992278    -0.0461928    -0.0171866    -0.0110507    0.00444971  -0.000362245   0.000628545  -0.000518456   0.000267489
   -0.0781094      -0.25039      0.136572   -0.00812235    -0.0506324    -0.0210715    -0.0125294    0.00317074  -0.000189993   0.000696265   0.000453334  9.78411e-005
    -0.084861     -0.256903      0.130509    -0.0134157    -0.0497074     -0.018131    -0.0122824    0.00495966 -2.90707e-005   0.000498597  -0.000120278    0.00029393
   -0.0935967     -0.254803       0.11484    -0.0199322    -0.0444194    -0.0149896    -0.0112957    0.00606126   0.000200884   0.000458838  6.15547e-005  -0.000140668
   -0.0880033     -0.254479      0.119028    -0.0228532    -0.0458543    -0.0184403     -0.011494    0.00472827  -0.000462908   0.000210211   0.000526825  5.15062e-005
   -0.0848122     -0.253417      0.126406    -0.0181309    -0.0462969    -0.0257209    -0.0106991    0.00175396  -0.000689804   0.000253867   0.000345226   0.000482325
    -0.106898     -0.255753      0.121026    -0.0141002    -0.0450902    -0.0182454    -0.0102898    0.00393078  -0.000135531   0.000591027  -0.000332026  -0.000178348
    -0.118058     -0.260974       0.11292    -0.0171958    -0.0432013    -0.0124968    -0.0096011     0.0053731  -0.000909112   0.000429583 -8.12587e-005  -0.000443696
    -0.120592      -0.26294      0.107927    -0.0240708    -0.0370922     -0.014364   -0.00835072    0.00757341  -0.000802984   0.000341267    0.00013434  4.24044e-005
    -0.131847     -0.264143      0.102621    -0.0209206     -0.038021    -0.0128704    -0.0098718    0.00786436  -0.000522002   0.000829609  5.74013e-005   0.000104778
    -0.128404      -0.26419     0.0923982    -0.0346905    -0.0292018    -0.0131535     -0.010134     0.0114219  -0.000358816    0.00062951  -0.000513355    0.00031688
    -0.130404      -0.26755     0.0926133    -0.0363769    -0.0274617    -0.0133477   -0.00821551     0.0116105  8.02054e-005   -0.00023559  -0.000431099  2.07699e-005
    -0.138059     -0.269952      0.106949    -0.0172785    -0.0362246    -0.0159234    -0.0094192    0.00615735   -0.00052435   0.000829698   5.9705e-005  9.66948e-005
    -0.142133     -0.273898      0.109981    -0.0204888    -0.0347817     -0.014928   -0.00877881    0.00762304   0.000192643   0.000457869  6.89107e-005  -0.000130641
    -0.137494     -0.276023      0.117281    -0.0216706    -0.0358959    -0.0161877    -0.0076402    0.00655126  -0.000423892   0.000752133   0.000278008   0.000570619
     -0.14596      -0.27632      0.119271    -0.0128058    -0.0361179    -0.0165894   -0.00929361    0.00614408  -0.000477772     0.0007169  -0.000721479  -0.000191613
    -0.153822     -0.278461      0.100627     -0.026622    -0.0258861    -0.0131817   -0.00898849     0.0110549  -0.000195753   0.000694921   0.000461395   0.000151027
    -0.152012     -0.280456       0.09562    -0.0302117    -0.0257738    -0.0118297   -0.00807528     0.0116851  7.20634e-005    0.00041114  9.96021e-005   0.000812034
    -0.164689     -0.282586      0.107208    -0.0131086    -0.0333833    -0.0134918   -0.00979534     0.0088747  -0.000424394   0.000730867    0.00027507   0.000576522
    -0.167158     -0.283095      0.116978   -0.00749239    -0.0352383    -0.0180819   -0.00871255    0.00724095 -9.42847e-005   0.000599279   0.000673629   0.000590252
    -0.174451     -0.281087      0.105849    -0.0101902    -0.0293278    -0.0173416   -0.00674653    0.00776696 -9.40315e-005   0.000601619   0.000673617    0.00059712
    -0.178125     -0.285493      0.105549    -0.0221206    -0.0267311    -0.0158675   -0.00587302    0.00848966   -0.00103987   0.000381883 -4.01415e-005   0.000494227
    -0.185501     -0.294152      0.122094    -0.0239247    -0.0321026    -0.0160013   -0.00398367    0.00660107   -0.00109809  -0.000140456   0.000223094 -2.54714e-005
    -0.197738     -0.301007      0.134113     -0.023709    -0.0363864    -0.0140819   -0.00384496    0.00375608   -0.00115707   0.000501211  -0.000243559 -1.66654e-006
    -0.200669     -0.304787      0.148034    -0.0197168    -0.0417903    -0.0157697   -0.00421586    0.00154491 -5.47217e-005   0.000539488 -9.67233e-005   0.000282585
    -0.221052     -0.307828      0.147104    -0.0143291    -0.0402181    -0.0130566   -0.00504034    0.00333938  -0.000231877 -5.47992e-005   0.000190967    0.00069443
    -0.229436     -0.309464      0.132509     -0.021066    -0.0323808    -0.0102345   -0.00419533    0.00611804  -0.000110089 -1.17437e-005   0.000161784  -0.000202777
    -0.226279     -0.308002      0.130712    -0.0166214    -0.0328117    -0.0146244   -0.00380726    0.00442064  -0.000494233   0.000227179   0.000549742    4.822e-005
    -0.233914     -0.305327      0.141578   -0.00967182    -0.0295155    -0.0186681   -0.00651515    0.00341708  7.64884e-006   0.000668532   0.000663199  -0.000340799
     -0.24158     -0.309706      0.142066   -0.00817403    -0.0273843    -0.0200808   -0.00672205     0.0038039  -0.000114559   0.000619286   0.000693924   0.000577144
    -0.247621     -0.315211      0.146385    -0.0109976     -0.028563    -0.0192457   -0.00670766    0.00337442  -0.000222265   0.000713759    0.00048347   0.000105249
    -0.259479     -0.318064      0.141263     -0.016785    -0.0266632    -0.0154986   -0.00509376    0.00612209  -0.000278539   0.000829096    0.00127105   0.000404801
      -0.2781     -0.321529      0.127663    -0.0171834    -0.0222508    -0.0111751   -0.00470208    0.00929109   0.000322357  -0.000248896   0.000776494   0.000307157
    -0.278398     -0.323149       0.12955    -0.0180816    -0.0174722    -0.0131446   -0.00490961    0.00792182   0.000214794  -0.000158337    0.00056673  -0.000165873
    -0.265874     -0.326943      0.158912     -0.010611     -0.026595    -0.0196018   -0.00598145     0.0016861  -0.000349371  2.76359e-005 -8.27008e-006    0.00022051
    -0.264643      -0.33033       0.18102   -0.00456012    -0.0323655    -0.0227817   -0.00591969   -0.00117955   0.000643468   0.000155676 -7.15986e-005  2.98935e-005
    -0.269503     -0.331561      0.158027    -0.0149353    -0.0245081    -0.0206481   -0.00384089    0.00268189  -0.000350833  3.24434e-005 -5.75549e-006   0.000227491
    -0.282344     -0.335547      0.155534   -0.00518502    -0.0282715     -0.021438   -0.00295442   0.000755326    0.00015559   0.000480836  9.99253e-005  -0.000169869
    -0.286511     -0.335015      0.171478    0.00129562    -0.0342197      -0.02538   -0.00320152   -0.00297175 -7.42867e-005    0.00052915 -8.08493e-005   0.000253505
    -0.287052     -0.331684      0.162723   -0.00517867    -0.0271154     -0.022525   -0.00337472   0.000251322 -7.47499e-005   0.000525912 -7.96734e-005   0.000273802
    -0.302763     -0.337393      0.146767   -0.00620415    -0.0231841    -0.0164423   -0.00269957    0.00305559  -0.000232753  6.96577e-005 -3.76421e-005  -0.000691676
    -0.315578     -0.339617      0.134708     -0.019289    -0.0143342    -0.0110727  -0.000481024    0.00844176   0.000309228   0.000282205  -0.000468664  6.06007e-005
    -0.341307     -0.340216      0.120401    -0.0239525   -0.00282589   -0.00499341   0.000453879     0.0148588  -0.000468952   0.000106272  -0.000213872  -0.000179689
    -0.364698     -0.347575      0.139569     -0.001756    -0.0138312   -0.00466023   -0.00161624    0.00966753   0.000242364   0.000377226   0.000319667   0.000339804
    -0.360321     -0.346424      0.155012     0.0104689    -0.0185263    -0.0112268  -0.000599305    0.00413516     0.0005076  -0.000557344  -0.000568038   0.000170627
     -0.35974     -0.345734      0.131755    -0.0017205   -0.00636738   -0.00855614    0.00102465    0.00809286  -0.000142018 -2.76413e-005   0.000181746  -0.000195891
    -0.357484     -0.347872      0.143914   -0.00178116   -0.00631068    -0.0108823    0.00178976    0.00771421   0.000131901   0.000472696   0.000112503  -0.000134777
     -0.37086     -0.349978      0.133729   -0.00307733   -0.00265813   -0.00907481    0.00198328    0.00869388  8.10324e-005  -6.9466e-005   0.000369124  -0.000637155
    -0.378434     -0.357589       0.12855    -0.0136179  -0.000633616   -0.00598812    0.00488632    0.00868322    0.00034649  -0.000338212  1.07673e-005  2.55881e-005
    -0.375073     -0.364246      0.153659   -0.00885931   -0.00879355    -0.0111075    0.00637039    0.00541944    0.00095239  3.75126e-005   0.000338042  9.26228e-005
      -0.3931     -0.371286      0.167975     0.0108269    -0.0192255   -0.00702291    0.00455837    0.00220457   0.000385104   0.000206233  -0.000243738   0.000483939
    -0.395279     -0.373218      0.177039      0.016112    -0.0219138   -0.00863645    0.00377312  -0.000150152    0.00077022 -3.57553e-005  -0.000632547   0.000209933
    -0.397384     -0.371717      0.164325     0.0100764    -0.0135227   -0.00959216    0.00563321    0.00230407   0.000278199   0.000292755  -0.000454382  1.70582e-005
    -0.405794     -0.376856      0.166721    0.00558214    -0.0148364   -0.00775639    0.00605867    0.00249716    0.00033099  -0.000326729  1.79386e-005 -1.93521e-005
    -0.415025     -0.378519      0.149254    -0.0130611   -0.00295693   -0.00158652    0.00736625    0.00812738   0.000116333   0.000506188   0.000124533  -0.000127866
    -0.427056     -0.375505      0.123915    -0.0165695    0.00628238    0.00438731    0.00821628     0.0119583  -0.000160363  1.95933e-006   0.000194871  -0.000168272
    -0.439301     -0.375815      0.140126  2.85547e-005   -0.00203997    0.00163124    0.00708283    0.00811053   0.000274218   0.000292515  -0.000452707  5.11528e-005
    -0.444504     -0.376527      0.158837    0.00884738   -0.00459728   -0.00401848     0.0058379    0.00672869  -0.000237294  -0.000167691  -0.000557069   0.000420817
    -0.442304     -0.379277      0.172939     0.0123412   -0.00875575    -0.0073706    0.00644837    0.00445045  -0.000400677  3.74821e-005  1.92257e-005   0.000221367
    -0.453102     -0.377074      0.165498    0.00802673  -0.000403439    -0.0043111    0.00686573    0.00809282   0.000422132  -0.000429629   0.000240884   0.000477824
    -0.454738     -0.375509      0.167723    0.00729966    0.00188553   -0.00803464    0.00709397    0.00905056   -0.00012602   0.000523804 -4.95116e-005   0.000310578
    -0.456372      -0.37945      0.170228     0.0101539   0.000217582    -0.0115032    0.00755568    0.00734064   0.000368294   0.000193179   -0.00022693     0.0005118
    -0.468863     -0.383873      0.167267     0.0133812    0.00143047   -0.00863491    0.00724354    0.00705997  8.73618e-005   -0.00030428  -0.000153229   0.000446306
    -0.464088     -0.385866       0.17371    0.00939231   -0.00187317    -0.0131143    0.00812421    0.00495243 -8.31753e-005   -0.00087826   0.000135403   0.000845292
    -0.486821     -0.387455       0.14364 -1.83687e-005    0.00823325   -0.00210352    0.00882751     0.0107582  -0.000123226      0.000528 -5.17787e-005   0.000324872
    -0.518773     -0.387558      0.131174    0.00908536    0.00837038    0.00619032    0.00917958     0.0133307  -0.000233413   0.000604127  -0.000268296  -0.000140642
    -0.514438     -0.384578      0.151233     0.0264433    0.00326952 -1.38426e-005    0.00843492    0.00936398   -0.00014548  -0.000275274  -0.000340539   0.000894609
    -0.508683     -0.390369       0.15075     0.0221377    0.00639073    0.00237739    0.00885355    0.00855059  8.01655e-005  -0.000308884  -0.000155829   0.000450088
    -0.498378     -0.394621      0.137618    -0.0049403     0.0146338    0.00298524     0.0121932     0.0118891  -0.000341649   0.000715859  -0.000473801  -0.000606067
    -0.499427     -0.394361      0.165774     0.0103903    0.00631876   -0.00328577     0.0125564    0.00548197  -0.000416079  5.03643e-005  3.00813e-005    0.00023259
    -0.521779     -0.399736      0.198598     0.0434956   -0.00870202   -0.00596796    0.00969443  -0.000592897   0.000411714   0.000356851   0.000535589  -0.000176366
    -0.547725     -0.400856      0.160875     0.0446968   -0.00257252    0.00255076     0.0107189    0.00484043  -0.000648743  6.02775e-005   -0.00016282   0.000652162
    -0.555528     -0.403054      0.128343       0.03071    0.00801545      0.009302     0.0122894    0.00872771  -0.000187869 -2.39469e-005   0.000199579  -0.000209363
    -0.544586     -0.401143      0.147961     0.0308322    0.00646633     0.0025306     0.0123153    0.00823742    -0.0004191  2.03534e-005  2.27061e-005   0.000232478
    -0.548881     -0.403119      0.165007     0.0388805  -9.8692e-005   0.000417233     0.0119904    0.00458199  -0.000317354 -6.24459e-005   0.000237656   0.000679967
    -0.553211     -0.399106       0.17001     0.0464596   -0.00224046  -0.000259646     0.0117824      0.002807  -0.000479689   0.000134885   0.000810726   0.000481828
    -0.554854      -0.38603      0.178028     0.0617012   -0.00303361   -0.00675701    0.00895024    0.00315731   0.000185208   0.000360805   0.000346126    0.00027736
    -0.567468     -0.384552      0.162764     0.0552561    0.00719166   -0.00459052    0.00823199    0.00530831   0.000401123  -0.000470529   0.000243772   0.000442408
     -0.57826     -0.387344      0.152008     0.0439265     0.0167235    -0.0035133    0.00882285    0.00973303  -0.000371428  -0.000638279   0.000498989   0.000196999
     -0.59818      -0.39413       0.16628     0.0509825     0.0113798   -0.00230342      0.010448    0.00919689   0.000339828   -0.00100868   0.000509154 -4.84606e-005
    -0.623891     -0.395473      0.153059     0.0581012     0.0103525    0.00791507     0.0115778     0.0102019  -0.000996123    -0.0010008   0.000176426  9.82244e-005
    -0.625303     -0.390953      0.139868     0.0545161     0.0163106     0.0132242     0.0127623     0.0133697  -0.000491103  -0.000550174   0.000284278   -0.00026602
    -0.608419     -0.383924       0.15412      0.054073     0.0157717    0.00625005     0.0112876     0.0127762   0.000281049  -0.000388491  3.67139e-005  5.01895e-006
    -0.599711     -0.376989       0.16316     0.0578432     0.0145645   -0.00238645    0.00935622     0.0103141 -4.88851e-005  -0.000264028  -0.000358125 -3.25398e-005
    -0.600517      -0.37961      0.168685     0.0576403       0.01416   -0.00224785     0.0106693    0.00846942   2.2586e-006  -0.000881011   0.000114445 -7.86179e-005
    -0.605542     -0.378235      0.172676     0.0681289     0.0099283   -0.00578612    0.00839055    0.00547096  -0.000101424  -0.000802504     -0.000101  -0.000568999
    -0.619479     -0.380686      0.174062     0.0710352    0.00936418   -0.00155949    0.00896808     0.0047346   0.000451902   0.000194548  -0.000248603  -0.000447568
     -0.62641     -0.384841      0.168757     0.0666242     0.0111306    0.00213217     0.0102254    0.00510948 -5.51447e-005  -0.000249856  -0.000357362 -6.03262e-005
    -0.639784     -0.380205      0.134356     0.0577129     0.0201179    0.00969805     0.0105931     0.0103995  -0.000220922  -0.000842833 -7.69359e-005   0.000378775
    -0.651456     -0.381134      0.126299     0.0597589     0.0207494     0.0114099     0.0109646     0.0101519  7.32434e-006  -0.000887779   0.000104104  -6.8535e-005
    -0.643422     -0.384067      0.152035     0.0724552    0.00882064    0.00283484    0.00937072    0.00474722  -0.000101668  -0.000149774   0.000420856   0.000219439
    -0.654857     -0.386281      0.133266     0.0626298     0.0166219     0.0141783     0.0105985    0.00991432  -0.000223064  -0.000842198 -7.88872e-005   0.000372179
    -0.665226     -0.385359      0.120891     0.0665179     0.0210283     0.0197922     0.0110837     0.0120593 -5.23681e-005  -0.000266096  -0.000368532 -2.59265e-005
    -0.662969     -0.377608       0.12079     0.0659289       0.02333     0.0164755     0.0100217     0.0103953   0.000283336  -0.000397853  2.81245e-005  -5.9629e-006
    -0.672683     -0.377187      0.118988      0.065248     0.0250292     0.0222348     0.0113737     0.0131501   0.000610684  -0.000528229   0.000425671   3.0737e-005
    -0.676642     -0.372148      0.127574      0.074645     0.0180155     0.0204105     0.0106319     0.0115951   0.000222677  -0.000290847   0.000814225   0.000275338
    -0.666998     -0.364655      0.119651     0.0752246     0.0187567     0.0145741     0.0105136     0.0112865   0.000230158  -0.000299335   0.000810671   0.000274793
    -0.665578     -0.361788      0.116786     0.0747538     0.0196856     0.0123929     0.0108252     0.0112197   0.000405079   0.000282765   0.000523254  -0.000131985
    -0.676762     -0.362897      0.117429      0.078004     0.0157513     0.0149326     0.0114671     0.0106351   0.000390774  -0.000497947   0.000235754   0.000454457
    -0.693313     -0.359816      0.131612     0.0991497    0.00874955     0.0156269     0.0100002    0.00827267  -0.000389477  -0.000160221  -0.000769753 -9.13374e-005
    -0.691809      -0.35599       0.12358     0.0894874     0.0104045     0.0141978      0.010437     0.0106245  -0.000438355 -4.83554e-005  1.60586e-005   0.000209048
    -0.691842     -0.355595     0.0918867      0.071735     0.0188432     0.0189239     0.0123082     0.0168773  -0.000587519  -0.000500977  5.66574e-005  -0.000730655
     -0.69441     -0.350255     0.0881926     0.0702225     0.0194334     0.0198417     0.0134194     0.0187509  -0.000602736  -0.000635074    0.00029851   0.000664666
    -0.692834     -0.347782     0.0920331     0.0717296     0.0184713     0.0208081      0.011484     0.0189795   0.000117025   -0.00101346   0.000304683   0.000429091
    -0.689533     -0.339905     0.0908769     0.0764742     0.0196622     0.0175581     0.0121746     0.0174532  -0.000375482  -0.000685403   0.000481089   0.000210718
    -0.674537      -0.33207     0.0826927     0.0665952     0.0231012     0.0157189     0.0129511     0.0163206 -3.63425e-005  -0.000290321  -0.000379864  -7.5913e-006
    -0.678441     -0.330528     0.0908077     0.0791105     0.0135158      0.017048     0.0117615     0.0135028 -3.70277e-005  -0.000808982   0.000872498    0.00021592
     -0.67498     -0.327183      0.100457     0.0854555    0.00920961     0.0149797     0.0103438    0.00932865  -0.000197369 -9.01455e-005   0.000189266  -0.000238621
    -0.672353     -0.319798     0.0834108     0.0816164     0.0157163      0.017254     0.0105044     0.0127468   0.000405522  -0.000517995   0.000221582   0.000462475
    -0.675108     -0.313292     0.0831904     0.0908383     0.0104589     0.0159435      0.010099     0.0129448 -8.62924e-005  -0.000199233   0.000394937   0.000244848
    -0.670669      -0.30872     0.0809057     0.0899429    0.00961522     0.0164945    0.00966247     0.0125436   0.000742438  -0.000660326   0.000612032   0.000479079
    -0.678365     -0.304051     0.0753497     0.0946862     0.0068099     0.0210125    0.00997811     0.0126844  -0.000469526  -0.000607777   0.000251208  -0.000293677
    -0.676017     -0.301222     0.0700431     0.0983886    0.00241189      0.021767    0.00933222     0.0109225   0.000253676  -0.000331891   0.000780218   0.000254508
    -0.662338     -0.298139     0.0711625     0.0937137   -0.00159523     0.0188061    0.00917596     0.0101602  -0.000301036  -0.000152693    0.00019933   0.000672875
    -0.653802     -0.295273      0.073793     0.0890561   -0.00283739     0.0168699     0.0102398     0.0118569   0.000526016  -0.000613489   0.000419417   0.000916623
    -0.640186      -0.29022     0.0693781     0.0847596  -0.000501756     0.0188494     0.0095193     0.0148659   -0.00019101  -0.000895392  -0.000116003   0.000373801
    -0.629599     -0.285809     0.0641085     0.0761765    0.00200067     0.0194817    0.00902255     0.0153837 -6.62398e-005   -0.00084552  -0.000145546  -0.000534017
    -0.621073     -0.282929     0.0466385     0.0709529    0.00247889     0.0215401    0.00879123     0.0172202   0.000606337  5.46772e-005 -8.78251e-005  7.47599e-005
    -0.594426     -0.277436     0.0525835     0.0750919   -0.00110074     0.0173933    0.00685903     0.0147044  -0.000107437  -0.000225354  -0.000625292  -0.000497294
    -0.580737     -0.276035     0.0601079      0.079838   -0.00676163     0.0167347    0.00556739     0.0129017   0.000105968  -0.000401668  -0.000202223   0.000431625
    -0.581065      -0.26717     0.0429735     0.0883571   -0.00817352     0.0199086    0.00466491     0.0145315   0.000284293    0.00016452  -0.000498418  2.65585e-005
    -0.562056      -0.25961     0.0340871     0.0823636   -0.00560373     0.0172217    0.00485484     0.0160585 -9.63806e-005   0.000404078  -0.000110971   0.000298126
    -0.537501     -0.251792     0.0417517     0.0765805   -0.00700884     0.0142711    0.00452996     0.0145819  1.41101e-005  -0.000325478  -0.000425214 -2.84634e-005
    -0.524814     -0.240844     0.0476712     0.0891986    -0.0118975    0.00919536    0.00405486     0.0108711   0.000349303  -0.000463252 -3.28304e-005 -2.72574e-005
    -0.509002     -0.239431     0.0596201     0.0797569    -0.0156184    0.00718753    0.00500463     0.0101429  -0.000371219 -7.26976e-005 -3.48516e-005     0.0002076
    -0.494763     -0.238262     0.0681684     0.0706978    -0.0179453    0.00654018     0.0079432    0.00948806  -0.000812534   0.000166797  -0.000639564   -0.00028738
    -0.481544      -0.23427     0.0697718     0.0677256    -0.0193786    0.00398838    0.00788709    0.00889583   1.7138e-005  -0.000292591  -0.000421312 -5.31669e-005
    -0.454769     -0.229663     0.0753398     0.0479487    -0.0190259    0.00295415     0.0104514    0.00942589   0.000403824   0.000141248  -0.000277856   0.000493573
    -0.446274     -0.218395      0.057075     0.0429296    -0.0146575    0.00721557     0.0119391     0.0105789   0.000196092  -0.000195065    0.00054848  -0.000190307
    -0.456539     -0.213889     0.0468761     0.0551748    -0.0177956     0.0129234     0.0112895     0.0109854  -0.000255737  -0.000771953  -0.000353966 -9.89161e-005
    -0.446693     -0.207114     0.0459714     0.0578581    -0.0236301     0.0137338     0.0110604     0.0123217 -8.02252e-005  -0.000194094  -0.000645008   -0.00050525
    -0.436911     -0.195788     0.0298395     0.0582659     -0.022404     0.0173331     0.0116023     0.0126501  -0.000183262   0.000543135  -0.000335987  -0.000178839
    -0.429698     -0.188934     0.0274384     0.0662383     -0.024869     0.0188011     0.0118962    0.00986697   -0.00040712  -0.000578918   0.000204011  -0.000296374
    -0.391399     -0.183173     0.0234073     0.0541436    -0.0226377     0.0125606     0.0117633     0.0116836   0.000441241  -0.000258146   0.000708013  -0.000637884
    -0.362184     -0.174354     0.0254266     0.0487162    -0.0218862     0.0100107     0.0120085     0.0119707  -0.000449363  5.14512e-005   -0.00026739  -0.000236911
    -0.353149     -0.169314     0.0391489     0.0619227    -0.0291911     0.0061568     0.0114337     0.0087208   0.000708628  -0.000546785   0.000345871  -5.2904e-007
    -0.343031     -0.166813     0.0527775     0.0720194    -0.0399009    0.00653465    0.00976783    0.00299498    0.00037572   -0.00040762  -5.3409e-005 -5.90154e-005
    -0.322584     -0.161609      0.054831     0.0712286    -0.0418465    0.00574982    0.00986394    0.00164424  -0.000288096  -0.000655649   0.000409052   0.000132461
    -0.301715     -0.156042     0.0439602     0.0591796    -0.0376973    0.00582365     0.0107803    0.00382589   0.000277602  -0.000309863  -0.000269121  -0.000516689
    -0.295588     -0.151919     0.0289649     0.0481963    -0.0318466     0.0130968     0.0106051    0.00811582  -0.000213838  2.20844e-005 -9.34455e-005  -0.000700369
     -0.28583        -0.145      0.023258      0.041103    -0.0286847     0.0146166    0.00997201     0.0101077  6.75691e-005   0.000518006  -0.000167948  -0.000623231
    -0.269704     -0.139494     0.0220429      0.041213    -0.0327909     0.0136987     0.0103382    0.00927051   0.000125984  -0.000107125   0.000298702  -0.000666571
    -0.252976     -0.131202    0.00243045     0.0372439    -0.0284367     0.0130737     0.0122314    0.00994883  7.95596e-005    0.00051934  -0.000177412  -0.000619579
    -0.244748     -0.125013    0.00259654     0.0442129    -0.0306225     0.0127524     0.0115997    0.00924707  -0.000531727    0.00014794  -0.000502398  -0.000715028
    -0.228154     -0.125513     0.0171633     0.0483895    -0.0370698    0.00995171      0.012649     0.0083752   0.000410873   0.000384038   0.000216425  -0.000611328
    -0.206266     -0.119679     0.0307369      0.048732    -0.0411294    0.00551322     0.0103818    0.00389143 -4.04662e-005   0.000478622  -0.000149578   0.000260292
    -0.195534     -0.114266      0.021675     0.0486829    -0.0402743     0.0051005    0.00861056    0.00417602   0.000192963   0.000427245  2.91232e-005  -0.000182772
    -0.176451     -0.113915     0.0221232     0.0379407    -0.0384852    0.00487961    0.00928378    0.00558763   0.000687902   0.000104944  -0.000146356  4.04382e-005
    -0.157934     -0.109988     0.0174554     0.0365916    -0.0391456    0.00547897     0.0085288    0.00657154  -0.000467393   0.000178916   0.000491431  3.18882e-005
    -0.153678     -0.105138   -0.00999762     0.0344018    -0.0333157     0.0108843    0.00793588     0.0114311  -0.000406434  5.06006e-005  -0.000302786  -0.000227905
    -0.145778     -0.105877     0.0118326     0.0409134    -0.0414812    0.00957499    0.00878878    0.00799088   0.000253619  -0.000200784   0.000492367  -0.000200334
    -0.128155     -0.101296     0.0167465     0.0409576    -0.0466437    0.00582872     0.0107433    0.00528788  -0.000624435   0.000898961  -0.000197888  -0.000410756
    -0.112777    -0.0974637     0.0171694      0.034943    -0.0478822    0.00438098     0.0100529    0.00470137   0.000206496   0.000442116  2.01529e-005  -0.000174593
   -0.0924089    -0.0917067     0.0134368     0.0265062    -0.0429259    0.00233391     0.0114225    0.00699153 -7.27756e-005   0.000598812   0.000624125   0.000572827
   -0.0761109    -0.0831798    0.00380118     0.0181562    -0.0366787    0.00072554     0.0115375    0.00891643  -0.000187027 -9.83146e-005     0.0001246   0.000711377
   -0.0779276    -0.0848364      0.029643     0.0366558    -0.0467707  -0.000283231    0.00908125    0.00480156  -0.000180074  2.92265e-005  -0.000116133  -0.000708048
   -0.0614329    -0.0819465     0.0327889      0.032024    -0.0455898   -0.00364867    0.00916416    0.00357871  -0.000458824   0.000190318   0.000487751  2.12509e-005
   -0.0431671    -0.0790316    0.00913696     0.0117004    -0.0353877   -0.00126076    0.00978109    0.00739916   0.000162425   0.000560833   0.000807495   0.000142506
   -0.0438695    -0.0777043     0.0168839     0.0245108     -0.043244    0.00180095    0.00976715    0.00585753  -0.000347916   0.000621097  -0.000560952    0.00026102
   -0.0504301    -0.0815559     0.0445605     0.0511405    -0.0585835     0.0029652    0.00820619   -0.00053724  -0.000357355   0.000619248  -0.000562658   0.000212434
   -0.0504511     -0.085207     0.0398817     0.0487775    -0.0575177    0.00622448    0.00829512  -0.000840407   0.000748601   0.000658281  -0.000419333   0.000512308
    -0.034523    -0.0761355     0.0223335      0.030649    -0.0469431    0.00570142    0.00881108    0.00221157  -0.000403594   0.000740671   0.000222616   0.000526974
   -0.0230654    -0.0726081     0.0287312     0.0287958    -0.0502999    0.00513527    0.00879154    0.00218907 -6.82857e-005 -3.78018e-005  9.08435e-005  -0.000243093
  -0.00821018    -0.0685189     0.0418921      0.032651    -0.0551648  -0.000568087    0.00865656    0.00076232  3.77844e-005  -0.000127137   0.000304651   0.000216895
  -0.00122858    -0.0632128     0.0267196     0.0282556    -0.0482787    0.00114992    0.00987229     0.0029935  -0.000173985   0.000696968   0.000405498  8.54084e-005
  -0.00368591    -0.0649161     0.0116848     0.0122363     -0.044308    0.00903662     0.0129446    0.00603502  4.10578e-005  -0.000112091   0.000302584   0.000255745
   0.00371433    -0.0675912     0.0215247      0.013212    -0.0534117     0.0114672     0.0125001    0.00294553    0.00070734   0.000154226  -0.000163064  4.13677e-005
    0.0108827    -0.0703303     0.0343013     0.0255145    -0.0612762     0.0103634     0.0119279   0.000291924   0.000159539 -5.72855e-005   0.000269895  -0.000699538
    0.0173775     -0.064582     0.0428173      0.029846    -0.0625091    0.00816919     0.0106885  -0.000406316   0.000370244  -0.000237771   0.000696319   0.000235803
    0.0171154    -0.0609629     0.0452005     0.0369623    -0.0643605    0.00823283     0.0108508  -0.000176971   0.000368068  -0.000244561   0.000695178   0.000231799
    0.0126966    -0.0613555     0.0298419     0.0322821    -0.0562607     0.0118725     0.0116514    0.00334977   0.000541096   0.000334018   0.000407463  -0.000154183
    0.0279312    -0.0554849     0.0337175     0.0298503    -0.0532557    0.00296877     0.0109367    0.00360062   0.000599005  -0.000301021   0.000879969  -0.000188678
     0.054437    -0.0524127     0.0492505      0.020599    -0.0535316   -0.00689759     0.0119019    0.00188593  4.04611e-005  -0.000114485   0.000306824   0.000229662
    0.0728288    -0.0503362     0.0699078     0.0188146    -0.0538789    -0.0136855     0.0101168    0.00122468  9.16703e-005  -0.000226391  -0.000472557 -5.78456e-005
    0.0845093    -0.0477177     0.0862106     0.0298735    -0.0610826    -0.0166515     0.0104511    -0.0038608  -0.000192334 -6.48925e-005   0.000129837   0.000642824
    0.0907323    -0.0450947     0.0695334      0.031286    -0.0586379    -0.0133673     0.0128619  -0.000617083  -0.000240335   -0.00126294  -0.000146388  -0.000645838
    0.0758448    -0.0394417     0.0628417     0.0437459    -0.0572093   -0.00968327     0.0117578    0.00166071   0.000206175    0.00044734   1.7393e-005  -0.000192698
    0.0699652    -0.0381167      0.039681      0.032268    -0.0510084   -0.00646788     0.0135286    0.00395527 -6.64743e-005 -4.39225e-005  8.85911e-005  -0.000236682
    0.0741644    -0.0351499     0.0295453     0.0178431    -0.0414049   -0.00567524     0.0138675    0.00762379  -0.000343775  -0.000537656   0.000166031  -0.000272348
    0.0754634    -0.0381362     0.0432655     0.0190009    -0.0467392   -0.00550062     0.0133948    0.00501248 -1.35255e-005  -0.000658716   0.000564404  -0.000261759
    0.0721593    -0.0399744     0.0173179   -0.00123001    -0.0360678    0.00479926     0.0162777     0.0104327   0.000331634    0.00117347   0.000518667  -0.000243544
    0.0532758    -0.0366908   -0.00247523   -0.00052443    -0.0309763     0.0116247     0.0170106     0.0155822 -6.67978e-005 -3.17713e-005  9.02215e-005  -0.000161524
    0.0522125    -0.0378676     0.0139353      0.014722     -0.041304    0.00871235     0.0152326     0.0100345   0.000437961   0.000419912   0.000197374  -0.000579922
     0.063543    -0.0402825     0.0189201    0.00815324    -0.0381189    0.00728419     0.0136509    0.00924042   -0.00029445  1.63159e-005  -9.2001e-005    0.00025052
    0.0708328    -0.0427139     0.0173112    0.00194513    -0.0359647    0.00538305     0.0156289     0.0114853   0.000211762   0.000470692  1.89363e-005  -0.000118625
    0.0757555    -0.0412534     0.0206645    0.00343164    -0.0357034    0.00658485     0.0145199     0.0115764   0.000703492   0.000137881  -0.000158014   9.1783e-005
     0.072692    -0.0389348     0.0413984     0.0231196    -0.0468852    0.00454818     0.0116597    0.00797007  -0.000406315  9.29493e-005  -0.000303932  -0.000238483
    0.0785973    -0.0380588     0.0451214     0.0229412    -0.0514156    0.00254753      0.012691    0.00511337   0.000316157  -0.000271102  -0.000298696  -0.000487274
    0.0953859    -0.0267901     0.0182125     0.0041587    -0.0406617     0.0041228      0.014641     0.0090751   0.000710414   0.000141859  -0.000162931  7.95972e-005
    0.0898499    -0.0259276     0.0249844      0.016127    -0.0465602    0.00217093     0.0117779    0.00811305  -0.000500398  -0.000335168   0.000733423   -0.00045677
    0.0844077    -0.0340059     0.0369744     0.0259876    -0.0518698    0.00229533     0.0109337    0.00532401  -0.000117409  -0.000578021   0.000343745  -0.000736376
    0.0888831    -0.0415361     0.0390206     0.0206099    -0.0551335    0.00286029     0.0106121    0.00442799  -0.000341939  -0.000525683   0.000160113  -0.000292933
     0.088752    -0.0409931     0.0274719     0.0114629    -0.0473633    0.00328362     0.0107711    0.00858624   0.000432318  -0.000366433 -9.03088e-005  6.69692e-006
    0.0826203    -0.0342618     0.0134232     0.0079593    -0.0407757    0.00719513     0.0132253     0.0129429   0.000216031   0.000455988  1.24491e-005  -0.000117828
    0.0812391     -0.034022     0.0134369     0.0100261     -0.043622    0.00593336       0.01279     0.0125427   0.000272082   0.000341347  -0.000775137  -0.000407082
     0.086758    -0.0338087     0.0146227    0.00649823    -0.0445815    0.00672631     0.0142195     0.0121087   0.000163751   0.000573931   0.000797402   0.000162594
     0.085016     -0.038767     0.0211915    0.00920853    -0.0504449    0.00668775      0.015524    0.00982632   0.000110258   0.000559328  -0.000201391  -0.000607015
    0.0914809    -0.0381287     0.0250504     0.0101479    -0.0475991    0.00297828     0.0169439    0.00884603    0.00026868  -0.000153758   0.000484001  -0.000177715
     0.103858    -0.0356112     0.0308675    0.00249083    -0.0440238    0.00227498     0.0180241     0.0099186   0.000652784  -0.000388378  9.89594e-005  -0.000427764
     0.106965    -0.0355275     0.0341976    0.00786046    -0.0482905    0.00571316     0.0170471     0.0073258 -6.82661e-005 -9.55096e-006  9.02438e-005  -0.000207618
    0.0884063    -0.0365995     0.0463968     0.0276547    -0.0553041    0.00790324     0.0146737    0.00442779   0.000139684  -0.000847458 -1.45066e-005 -8.67959e-005
    0.0930754    -0.0350796     0.0469664     0.0279976    -0.0545085    0.00276212     0.0140445    0.00367891 -1.71464e-005  -0.000652628    0.00055883  -0.000275082
     0.109382    -0.0313487      0.023984    0.00916366    -0.0450201   0.000164011     0.0157254    0.00819253  -0.000327323    0.00026197   0.000447697  -0.000858842
     0.107096    -0.0321574     0.0340275    0.00890337    -0.0478749    0.00346447     0.0144865    0.00798351  4.08024e-005  -0.000108446   0.000302184   0.000265357
      0.11061    -0.0359759     0.0665991     0.0164611    -0.0586929   0.000639677     0.0136797    0.00193114   -0.00063287  -0.000345375    0.00077205   0.000427025
     0.117437     -0.036547     0.0838557     0.0218697     -0.066834    -0.0045501     0.0147462   -0.00100467  -0.000302063  4.49981e-005 -8.61995e-005   0.000185626
     0.113359    -0.0317168      0.052683     0.0142176    -0.0565025    0.00022258     0.0160221    0.00254267   0.000530884  -0.000422498   0.000127056   0.000446201
    0.0997711    -0.0358413     0.0150128   -0.00669553    -0.0404076     0.0096248     0.0206895    0.00869815    0.00044018   0.000459617   0.000199862  -0.000572206
    0.0986421    -0.0372565     0.0198097    -0.0104591    -0.0404831     0.0112083      0.019602     0.0091799 -6.74528e-005  1.03936e-005  9.31272e-005    -0.0001862
    0.0885513    -0.0339445      0.023095    0.00572647     -0.044919     0.0106111     0.0180506    0.00670541    0.00049157   -0.00017686   0.000668811  -0.000627871
    0.0711361    -0.0394683     0.0383236     0.0229369    -0.0539661     0.0102081     0.0175651     0.0023859  -0.000353467  -0.000499815   0.000163214  -0.000302456
     0.079227    -0.0409354     0.0452173     0.0253731     -0.056911    0.00544087     0.0164876    0.00105939   -0.00029936  3.59908e-005 -9.44496e-005   0.000198389
    0.0819349    -0.0385889     0.0364842     0.0205503    -0.0534831    0.00488395     0.0173127    0.00364989 -1.55467e-005  -0.000638874   0.000558489  -0.000270774
    0.0822669    -0.0407153     0.0339925     0.0105445    -0.0479044    0.00505086     0.0168729    0.00503926   0.000757256  -0.000469256   0.000310372  1.69024e-005
    0.0886956    -0.0416936     0.0398864    0.00144517    -0.0471278    0.00449627      0.017368    0.00646057 -7.05912e-005  8.33447e-007  9.59844e-005   -0.00020813
      0.08984    -0.0366167     0.0406102    0.00689129    -0.0478532    0.00395832     0.0181626    0.00649712  3.39474e-005 -9.14231e-005   0.000307751   0.000259288
    0.0913927    -0.0316919     0.0359561      0.016601    -0.0470685   0.000164986     0.0173293    0.00390939  3.74053e-005  -0.000101476   0.000303769   0.000244898
    0.0971254    -0.0303557      0.042921     0.0187697    -0.0501293   -0.00307783      0.015999    0.00125419  -0.000120751  9.96953e-005   0.000877028  4.59543e-005
     0.099612    -0.0282597     0.0324494      0.015093    -0.0455322   -0.00324097      0.016497    0.00397547   0.000428982  -0.000349517 -8.73976e-005  -1.2874e-005
     0.100235    -0.0311059     0.0214654    0.00621605     -0.040767 -6.52058e-005     0.0168411    0.00562863   -0.00022199   0.000185551   0.000662699  -0.000394643
    0.0963941    -0.0266156       0.02389     0.0129759    -0.0421973    0.00305338     0.0164094    0.00598132  -6.5725e-005  -1.8941e-005  8.85762e-005  -0.000212122
    0.0896081    -0.0251793     0.0179869     0.0183971    -0.0435775    0.00484656     0.0168737    0.00496732  -0.000398114   0.000110631  -0.000310918  -0.000244431
    0.0967966    -0.0263741     0.0183679     0.0133132    -0.0423134    0.00495265     0.0170199    0.00404397  9.61248e-005  -0.000211772    -0.0004872 -3.38694e-005
    0.0959275    -0.0241029     0.0220038     0.0185995    -0.0421431    0.00189772     0.0155144    0.00413151 -1.01764e-005  -0.000134898  -0.000699607  -0.000507072
    0.0854565    -0.0285112     0.0322356     0.0296002     -0.050373     0.0039847     0.0142877    0.00137654  -0.000346261  -0.000519627   0.000158946  -0.000306993
    0.0892076    -0.0279062     0.0326987     0.0277607    -0.0496629    0.00336941      0.015098    0.00138089  4.05909e-005  -0.000759368  -0.000230155  -0.000565703
     0.100544      -0.02894     0.0184954     0.0121689    -0.0409989    0.00297917     0.0153032    0.00381876  -0.000288526  2.71227e-005 -9.73015e-005    0.00022691
    0.0892821    -0.0322827      0.028324     0.0228489    -0.0458322    0.00476161     0.0139362    0.00327755  -0.000239463   -0.00060756   0.000372999   0.000177495
    0.0728286    -0.0330289     0.0182202     0.0285324    -0.0448218    0.00886863     0.0138827    0.00607862   0.000265369  -0.000168303   0.000478926  -0.000196294
    0.0852141    -0.0299151    0.00373866    0.00617362    -0.0344659    0.00768724     0.0140603    0.00968005   0.000218213   0.000465989  1.13787e-005  -0.000125536
    0.0951982    -0.0296496     0.0115621    0.00544393    -0.0348266    0.00232199     0.0132912    0.00968907   0.000219088   0.000462129  1.36007e-005  -0.000125539
    0.0833606    -0.0361146     0.0204021     0.0250183    -0.0471386    0.00470198      0.012782    0.00560644  4.34433e-005  -0.000125676   0.000294905   0.000248407
     0.086358    -0.0366211     0.0342136     0.0285973    -0.0511809  -0.000315699    0.00965883    0.00371902   4.6356e-005  -0.000782171  -0.000231617  -0.000557623
     0.098579    -0.0339676      0.028535       0.02532    -0.0467149   -0.00562838    0.00911878    0.00439088  -0.000722628  -0.000303582   0.000547615 -3.00756e-005
    0.0994573     -0.034168     0.0264323     0.0230997    -0.0455178   -0.00715623    0.00867221    0.00505329  -0.000560517  -0.000506007 -2.56447e-005   0.000160066
     0.101552    -0.0345786     0.0428572     0.0285671    -0.0497802    -0.0111352    0.00761351    0.00293539  -0.000109508  -0.000593184   0.000344144  -0.000745689
    0.0951116     -0.033954     0.0357759     0.0344498    -0.0490545    -0.0111073    0.00860656     0.0040093  -0.000829798  -0.000228391    0.00033534  -0.000508913
    0.0815685    -0.0344167    0.00618034     0.0223618    -0.0395639   -0.00386664      0.010848     0.0102598   0.000118665   0.000517416  -0.000206068  -0.000605402
    0.0832435    -0.0374226    0.00849014     0.0124559    -0.0392109   -0.00317948     0.0113707    0.00952475  -0.000214012   0.000663858  -0.000599094  -0.000627954
    0.0911061    -0.0390309     0.0252761     0.0115734    -0.0430218   -0.00966983     0.0116605    0.00719842  -0.000215039   0.000155489    0.00066175  -0.000392932
     0.092235    -0.0402307     0.0318071     0.0137884    -0.0467238    -0.0083825       0.01145    0.00462402   4.9789e-005  -0.000123687   0.000301134    0.00024992
     0.094923    -0.0334086     0.0389358     0.0265849    -0.0531922   -0.00953402    0.00958787    0.00180384  -0.000175022  -0.000739019  -0.000414096  -0.000119757
    0.0948669    -0.0299832     0.0394198     0.0319809    -0.0517212    -0.0104434    0.00899581     0.0014247  -0.000336216  -0.000546236   0.000158798  -0.000308891
     0.079114    -0.0363402     0.0406586     0.0381243    -0.0548412   -0.00116304    0.00973225   0.000209172 -9.93577e-006  -0.000668885   0.000553709  -0.000293858
    0.0764676    -0.0328594     0.0294664     0.0369798    -0.0500562    0.00185958      0.010865    0.00460043  4.28963e-005   -0.00079028  -0.000233409  -0.000558086
    0.0759835    -0.0361726     0.0291126      0.042499    -0.0538276    0.00176843     0.0112767    0.00196931    0.00037548  -0.000267977   0.000687833   0.000245782
    0.0827604    -0.0448802     0.0420145     0.0425956    -0.0604698    0.00119394     0.0121529  -0.000438313   -0.00039886  -0.000420335   0.000940912 -4.15618e-005
    0.0974587    -0.0374408     0.0366551     0.0229596    -0.0479048   -0.00417427     0.0139988    0.00281591  -0.000451106   0.000214283   0.000477984  2.68149e-005
    0.0818101    -0.0345014     0.0326661     0.0255394    -0.0440156   -0.00171545     0.0125512     0.0058045   0.000266424  -0.000173505    0.00048486   -0.00019617
    0.0848625    -0.0300826     0.0333035     0.0232126    -0.0406942   -0.00352327     0.0123429    0.00641672   -0.00034605  -0.000539766   0.000165154  -0.000279052
     0.103964    -0.0256212     0.0468612     0.0183563    -0.0412708    -0.0116457      0.012696     0.0042635  -0.000453195   0.000207426   0.000485632  3.76766e-005
    0.0850868    -0.0294476     0.0380581     0.0188809    -0.0392998   -0.00630396     0.0125792    0.00631283  -0.000506751  -0.000336234   0.000742046  -0.000462526
    0.0591279    -0.0317672     0.0113847     0.0101032    -0.0287995     0.0104507      0.014291     0.0138257  -0.000512556   0.000178539  -0.000515538  -0.000668665
    0.0649249    -0.0338847    0.00642692    0.00243103    -0.0282238     0.0103771     0.0160205     0.0155378   0.000208021   0.000460473  1.88734e-005  -9.8482e-005
     0.082461    -0.0340805      0.016862    0.00192924    -0.0293002   0.000529482     0.0176231     0.0128327  -0.000123394   0.000596999   -0.00037427  -0.000134668
    0.0852861    -0.0350458     0.0342173    0.00838244    -0.0384971    0.00117747     0.0160983     0.0090144    -0.0004052   0.000108854  -0.000299553  -0.000221903
    0.0867559    -0.0321039     0.0368049     0.0201802    -0.0444277    0.00128452     0.0156421    0.00770083  -0.000244925  -0.000614628   0.000378993   0.000195874
    0.0818946    -0.0324552     0.0295766     0.0218434    -0.0439441    0.00365889     0.0152483    0.00855891  -0.000176957     5.22e-005  -0.000123263  -0.000678989
    0.0887058    -0.0352872     0.0243315    0.00795661     -0.039302    0.00199547     0.0147377    0.00917224  5.51705e-005  1.68077e-005  6.21649e-005   -0.00111203
    0.0945788    -0.0338214     0.0242246    0.00762082    -0.0361622   0.000777136     0.0145208    0.00833304   0.000267531  -0.000158312   0.000488204  -0.000171914
    0.0833103    -0.0348707     0.0209827     0.0139528    -0.0377502    0.00458918     0.0149876    0.00942142  -0.000174568  5.51234e-005  -0.000122627  -0.000667516
    0.0870938    -0.0324015     0.0294722     0.0104128    -0.0365898    0.00308143     0.0151348     0.0104488   0.000155309 -7.39336e-005   0.000277969  -0.000636636
    0.0828989    -0.0329105     0.0310255      0.017398    -0.0397144    0.00182176     0.0150182    0.00889961  -0.000244271  -0.000618217   0.000379522   0.000204818
    0.0800693    -0.0309405     0.0215244     0.0205938    -0.0427971     0.0019936     0.0160608    0.00952559 -6.73735e-005 -3.98149e-005  8.75139e-005  -0.000203072
    0.0835925    -0.0309101     0.0240451     0.0168239    -0.0418828   0.000499946     0.0138898    0.00854765  -0.000291937  4.81758e-006 -9.47202e-005   0.000241398
    0.0893132    -0.0306667     0.0133151    0.00064437    -0.0340484  6.96084e-005     0.0158989     0.0108789 -6.18063e-005 -2.82976e-005  9.14532e-005  -0.000181984
     0.094792    -0.0337869     0.0108895   -0.00559379    -0.0322299    0.00042183     0.0157817     0.0120542  -0.000114461   0.000601355  -0.000378181  -0.000134408
     0.102218    -0.0372826     0.0184773   -0.00358544     -0.035258  -0.000312945     0.0159625     0.0104202  -0.000340517  -0.000517053   0.000166788  -0.000245241
     0.101093    -0.0361097     0.0248904    0.00150877    -0.0396154   0.000726058     0.0153471    0.00995668   0.000163435 -6.63392e-005   0.000275407  -0.000634821
    0.0784775    -0.0402804     0.0456222     0.0329065     -0.052418    0.00192242     0.0147285    0.00402529   -0.00035307  -0.000527537   0.000163692   -0.00030056
     0.092507    -0.0380907     0.0522954     0.0323011    -0.0527633   0.000158987     0.0145654    0.00254771   0.000191719  -0.000314098   -0.00026992   0.000413473
     0.119817    -0.0356278     0.0510972     0.0167238    -0.0471874   -0.00385714     0.0131012    0.00590342  -0.000296044  1.54872e-005  -8.9862e-005   0.000228104
     0.117869     -0.034983      0.049605     0.0188999    -0.0473948   -0.00418629      0.012197    0.00593386   -0.00017397  5.48906e-005  -0.000120352  -0.000689291
     0.111242    -0.0329145      0.043008      0.025253     -0.046696   -0.00323642     0.0106167    0.00498198  4.04632e-005   -0.00012965   0.000301249   0.000245694
      0.10366    -0.0345877     0.0473403     0.0355113    -0.0494118   -0.00424994    0.00890989    0.00520323  -0.000240118  -0.000640292   0.000374117   0.000176068
     0.101217    -0.0300506     0.0290149     0.0295902    -0.0406623   -0.00207143     0.0101317    0.00788135 -6.48229e-005  -5.9483e-005  8.57666e-005  -0.000212129
     0.106444    -0.0262669     0.0344036     0.0339368    -0.0406793   -0.00732273      0.010605    0.00841911  -0.000344744  -0.000564142   0.000161298  -0.000276002
    0.0987919    -0.0264808     0.0362541     0.0348631    -0.0408753   -0.00456542     0.0114164    0.00886238  -0.000296776 -2.18244e-005  -9.4947e-005    0.00023375
    0.0778765    -0.0285239   -0.00310288     0.0150102    -0.0263461     0.0110008     0.0146797     0.0148505 -1.64007e-005   0.000487057  -0.000171749   0.000340324
    0.0818231     -0.027719   -0.00437471     0.0157162    -0.0257932     0.0116487     0.0140101     0.0157821  -0.000401195  7.43539e-005  -0.000311057  -0.000189745
    0.0903566    -0.0313056     0.0231407     0.0264996    -0.0361724    0.00533841     0.0103627     0.0100114  -0.000841614  -0.000221639   0.000338472  -0.000473478
      0.10111    -0.0322175     0.0552632     0.0376185    -0.0471879   -0.00471826    0.00932416    0.00500281  -0.000351998  -0.000551146   0.000165615  -0.000295901
     0.116865    -0.0236128     0.0647872     0.0517496    -0.0500156    -0.0155152     0.0076478    0.00262747 -7.01713e-005  -7.4575e-005  8.94601e-005  -0.000250963
     0.132995    -0.0198723     0.0667645     0.0493892    -0.0545381    -0.0198777    0.00668122    0.00191281   0.000429613  -0.000406414 -9.01061e-005 -4.40487e-005
     0.135308    -0.0140974     0.0686862     0.0489459    -0.0554379    -0.0176755    0.00734658    0.00352063  -0.000293373 -3.18238e-005 -9.55019e-005   0.000196977
     0.104727    -0.0169725     0.0339311     0.0381306    -0.0404549   -0.00359639    0.00868505     0.0113861  3.99251e-005  -0.000820451  -0.000229687  -0.000526495
    0.0880672    -0.0189782   -0.00363126     0.0222922    -0.0271757    0.00511514     0.0104587     0.0195635  -0.000290347 -4.54063e-005  -0.000100916    0.00029155
    0.0886492    -0.0179418    -0.0209072     0.0126935    -0.0193567    0.00646838     0.0116192      0.024293  -0.000514069 -7.76204e-006   -0.00028509   0.000765834
    0.0929626     -0.017836     -0.017776     0.0116095    -0.0211421    0.00544524     0.0122725      0.022772   -0.00012649   -0.00024362  -0.000674611   0.000499318
    0.0974456    -0.0106663    -0.0237347     0.0242501    -0.0257711  -0.000380003     0.0119046      0.019878    0.00022667   0.000395241   3.4154e-007 -8.87282e-005
    0.0993939    -0.0150565    -0.0171566        0.0218    -0.0286603   -0.00185521     0.0125369     0.0190222  -0.000387971   0.000688772   0.000208715   0.000613055
    0.0999982    -0.0192436   0.000960536     0.0210763    -0.0339009   -0.00198177     0.0134966     0.0165311  -0.000285688 -3.39875e-005  -0.000101884   0.000276404
     0.102627    -0.0153578   0.000265929     0.0275536    -0.0328647   -0.00397267     0.0153435     0.0162165   0.000326564  -0.000324481  -0.000309142   -0.00043351
     0.114407    -0.0177181     0.0184782     0.0197568     -0.033515   -0.00530492     0.0160216     0.0139634 -6.56524e-005 -6.07842e-005  8.83668e-005  -0.000179237
     0.121406    -0.0221267     0.0260917     0.0128143    -0.0341597    -0.0041132     0.0162372     0.0128476  -0.000173597  4.18683e-005  -0.000120876  -0.000651076
      0.11918    -0.0185255       0.02318     0.0187377    -0.0347371    -0.0036749     0.0168779     0.0127269   0.000105085  1.72266e-005    0.00105887  -0.000344971
      0.11217    -0.0164525     0.0251217     0.0236763    -0.0354076   -0.00345132     0.0158066     0.0118649   0.000317985  -0.000298068  -0.000300656  -0.000450938
     0.109636    -0.0189829     0.0268128     0.0266669    -0.0383587  -0.000334806     0.0137537     0.0112212  -0.000241881   -0.00064094   0.000374257   0.000210973
     0.110481    -0.0147309     0.0312686     0.0340351    -0.0395348   -0.00320558     0.0122889     0.0113157  -0.000575477  -0.000522227 -2.23124e-005   0.000181692
     0.105589    -0.0146314     0.0251423     0.0328313    -0.0359371   0.000206806     0.0103801     0.0125454  -0.000296068 -3.14745e-005 -9.73825e-005   0.000252818
     0.109476    -0.0196708     0.0251321     0.0209634    -0.0355343    0.00553207     0.0108161     0.0128531  -0.000175829   3.1069e-005  -0.000124533  -0.000655619
     0.120838    -0.0189674     0.0363095     0.0183633    -0.0356439 -4.93493e-005     0.0107345     0.0105267  3.64184e-005  -0.000137639   0.000304669   0.000277467
     0.123562    -0.0199372     0.0441534     0.0226093    -0.0397722      -0.00166     0.0111621    0.00924801   0.000540875   0.000316301   0.000414097  -0.000114798
     0.123043    -0.0165353     0.0385812     0.0243969    -0.0366604   -0.00183631    0.00940991    0.00994799  -0.000242048  -0.000642215   0.000377569   0.000208232
     0.127157    -0.0167732     0.0317006     0.0178315    -0.0346549  -5.2551e-005     0.0116023     0.0112865  -0.000455618   0.000191965   0.000480463   7.1104e-005
     0.127728    -0.0212235     0.0362222     0.0150394    -0.0381754    0.00175506     0.0122347    0.00961421   0.000209781   0.000457708  1.69777e-005  -0.000132828
     0.120615    -0.0203315     0.0301944     0.0152671    -0.0347474    0.00423103     0.0127663     0.0128887 -7.14995e-005 -4.64419e-005  9.13112e-005   -0.00018155
     0.117768    -0.0198536     0.0200353     0.0149018    -0.0338369    0.00546994     0.0134307     0.0121658 -6.81192e-005   -4.462e-005  8.80328e-005  -0.000183177
     0.123682    -0.0170433     0.0388565     0.0297953    -0.0423428   -0.00234968     0.0110138     0.0063869   -0.00034653  -0.000546216   0.000161541  -0.000282239
     0.118807    -0.0198335     0.0412054     0.0330437    -0.0452411  -0.000376445     0.0124061    0.00807938 -1.69714e-005  -0.000679809   0.000557505   -0.00025434
     0.123778    -0.0173312      0.027808     0.0245894    -0.0388946   -0.00252725     0.0135734    0.00825891  -0.000225556   0.000150992   0.000659727  -0.000392292
     0.141145    -0.0110252     0.0349397      0.020336    -0.0381006   -0.00894513     0.0137191    0.00763237   0.000269638  -0.000177489   0.000485323  -0.000181641
     0.138441    -0.0108674     0.0465614     0.0324547    -0.0414077   -0.00980648     0.0136247    0.00643801  -0.000242419  -0.000636525   0.000377064   0.000187262
     0.138276    -0.0112978     0.0468862       0.03802    -0.0386055   -0.00798611     0.0135611     0.0074038   0.000259383  -0.000190985   0.000486399  -0.000192663
       0.1304    -0.0107578     0.0264109     0.0245015    -0.0303036  -0.000393766     0.0155225     0.0141807   0.000538433   0.000304585   0.000412074 -9.05527e-005
     0.126748   -0.00806102     0.0214281     0.0252749    -0.0301543   -0.00419577     0.0155974     0.0148724   0.000369109   0.000228237  -0.000558686  7.24712e-005
     0.139806   -0.00395208      0.016882     0.0133769    -0.0255125   -0.00684393     0.0157404     0.0139869   0.000547363   0.000307393   0.000412204 -8.23906e-005
     0.145363  -0.000858984     0.0182176     0.0207515    -0.0250281    -0.0105968      0.014864     0.0134454   0.000375039   0.000227605   -0.00055851  7.27235e-005
     0.144087   -0.00249445     0.0286525     0.0323999    -0.0319943    -0.0128989     0.0145833    0.00958444   0.000600628   0.000183954  -0.000376687  -0.000398481
     0.144267  -0.000836513     0.0301019     0.0361551     -0.034644    -0.0120551     0.0136447    0.00984223   0.000494813  -0.000249001   0.000665225  -0.000624851
     0.132424    -0.0016146     0.0412145     0.0530799    -0.0417311   -0.00927209     0.0146044    0.00693289 -7.34041e-005 -7.47198e-005  8.47046e-005  -0.000229048
     0.124382   0.000427344     0.0102588     0.0358921    -0.0317528   -0.00112545     0.0163567     0.0124294   0.000159164  -0.000114355   0.000265057   -0.00063746
     0.136598     0.0048237    -0.0111855     0.0154773    -0.0191223   -0.00219892     0.0170151     0.0169179 -7.90538e-006   0.000469499  -0.000175165   0.000353703
     0.141574     0.0044469    0.00602901     0.0222942    -0.0224579   -0.00489313     0.0156003     0.0141064 -1.21796e-005   0.000470361  -0.000172183   0.000336646
     0.136996      0.012583     0.0125003     0.0389894    -0.0304384   -0.00504459     0.0150364     0.0116853  -0.000293053 -3.48499e-005  -0.000102095   0.000250342
     0.140312     0.0169964     0.0169941     0.0454246    -0.0363614   -0.00340306     0.0138113    0.00959649  -0.000519725  8.72312e-006  -0.000288446    0.00068136
     0.154124     0.0207606     0.0218795     0.0403816    -0.0370126   -0.00716396     0.0114696    0.00805496   -0.00044603  -0.000483589 -5.93205e-005  -0.000747487
     0.156723     0.0180729     0.0287959     0.0414285    -0.0389078   -0.00951477     0.0126146     0.0077624  -0.000168813  -0.000501122    0.00112451  -0.000440721
     0.156246     0.0124935       0.03494      0.042294    -0.0405337   -0.00673708     0.0137517    0.00730795  -0.000400674   -0.00044997   0.000942865  1.60093e-006
     0.152273     0.0113238      0.031007     0.0447019    -0.0381174   -0.00790923     0.0123347    0.00819395  -0.000451411  -0.000484507 -5.67152e-005  -0.000750344
     0.151192     0.0135927     0.0209381     0.0420945    -0.0337268   -0.00952482     0.0110916     0.0103693  -0.000448951   0.000154983   0.000470046  5.64349e-005
     0.165671     0.0102037     0.0255219     0.0321973    -0.0338065    -0.0102755     0.0121552     0.0116326  -0.000500751  -0.000374522   0.000730626  -0.000442389
      0.16175    0.00812431     0.0303366     0.0382463    -0.0367509   -0.00759074     0.0123899    0.00866148   0.000162135  -0.000114291   0.000265831   -0.00065575
     0.158444    0.00970795     0.0246468      0.041301    -0.0372901   -0.00774581     0.0120111    0.00993447  4.53702e-005  -0.000819472  -0.000236032  -0.000530125
     0.164506    0.00770772     0.0260153     0.0387344    -0.0370725   -0.00653285     0.0119988     0.0106475   0.000163547  -0.000121666   0.000263632  -0.000648008
     0.166667    0.00827106     0.0334093     0.0408228    -0.0381798   -0.00600715     0.0101719    0.00741842  -0.000557798   0.000258682   0.000258482  -0.000427257
     0.168781    0.00820439     0.0280445       0.03938     -0.039594   -0.00683596     0.0103512    0.00850234  -0.000672906  -0.000440512  -0.000243042  -0.000300382
     0.159201     0.0109168    0.00774681     0.0328035     -0.033109    0.00018895     0.0117708     0.0136615    0.00011262   0.000503432  -0.000210512  -0.000591607
     0.160617     0.0129632   0.000910534     0.0266946    -0.0288865    0.00313206     0.0109415     0.0158299   0.000552987   0.000283058   0.000398226 -8.15542e-005
     0.164774     0.0152656    -0.0043829     0.0306425    -0.0293087  -0.000537307     0.0104823     0.0149536  -0.000121222  -0.000245837  -0.000683771   0.000456265
     0.169465     0.0161874  -0.000608102     0.0313852    -0.0303535   -0.00481734      0.011013     0.0143533  -0.000226395  -0.000158848  -0.000895619 -1.79215e-005
     0.187982     0.0151119      0.018102     0.0237018    -0.0318643    -0.0131688     0.0108997     0.0125587  -0.000213314   0.000119579    0.00065387  -0.000368787
     0.180651     0.0118109    0.00486434     0.0151778     -0.027111   -0.00888452     0.0107898     0.0159499  -0.000384339  5.00497e-005  -0.000316194  -0.000187214
     0.172938     0.0115315   -0.00329538     0.0175793    -0.0269464   -0.00542045     0.0116988     0.0171786   0.000601918  -0.000614885  -0.000673516   0.000237773
      0.17206     0.0108068      0.013491     0.0274894    -0.0337392   -0.00702566     0.0119169     0.0143741    0.00060921   0.000170984  -0.000385411  -0.000376018
     0.177188     0.0110013    0.00547794     0.0167784    -0.0302325   -0.00592451     0.0134858     0.0149423   0.000224841   0.000425285  5.06932e-006  -0.000105714
     0.171535     0.0122153    0.00400609     0.0192305    -0.0292951   -0.00619715     0.0130988      0.014927   0.000451693   0.000377692   0.000188173  -0.000552369
     0.167502    0.00782738     0.0225658     0.0333559    -0.0348488    -0.0074739     0.0108745     0.0115475  6.06098e-005 -3.53404e-005  5.11857e-005   -0.00111079
      0.19472     0.0091076     0.0317234      0.014614    -0.0301465    -0.0127582      0.012252     0.0109831  -0.000392295  7.30803e-005  -0.000307813  -0.000209159
     0.184117     0.0108528     0.0307995     0.0227149    -0.0300062    -0.0111626     0.0107538     0.0103659   0.000166381  -0.000110355   0.000269969   -0.00063663
     0.176227    0.00670906     0.0269218     0.0221209    -0.0307993   -0.00568092     0.0121924     0.0119088   0.000388473    0.00050093    0.00098092  -0.000282397
     0.188351     0.0054065     0.0225744    0.00161076    -0.0220847   -0.00882736     0.0140147     0.0129728   -0.00055384   0.000284871   0.000269097  -0.000375628
     0.179875    0.00483019     0.0223453    0.00952922    -0.0227278   -0.00414951     0.0124373     0.0122114    0.00016354 -9.42592e-005   0.000273145  -0.000618151
     0.180395    0.00212966     0.0321085     0.0202348    -0.0296503   -0.00124588    0.00977361     0.0117385  3.97924e-005   -0.00014796   0.000300014   0.000286897
     0.178824    0.00461506     0.0458187     0.0392317    -0.0361784   -0.00339853    0.00750085    0.00802613   0.000263402  -0.000202935    0.00048131  -0.000187364
     0.182912    0.00741323     0.0501064     0.0474597    -0.0391953   -0.00454143    0.00660769    0.00716814   0.000756187  -0.000541491    0.00030209  1.38879e-005
     0.197359    0.00923345     0.0489638     0.0435396    -0.0393394    -0.0070985    0.00712349    0.00554978   0.000320857  -0.000315242  -0.000307459  -0.000485533
      0.21646      0.011131     0.0481128     0.0357949    -0.0370849    -0.0119646     0.0064673    0.00498216   -0.00116592  -0.000103134 -6.15557e-005  -0.000520554
     0.226197     0.0127744     0.0416449     0.0251212    -0.0325322    -0.0128191    0.00621002    0.00718538 -5.65502e-005 -6.82695e-005  8.38281e-005  -0.000204497
     0.209204     0.0074094     0.0398938     0.0319621    -0.0374048   -0.00626902    0.00729014    0.00648866  -0.000393489  6.66445e-005  -0.000314967  -0.000238646
     0.206449     0.0121204     0.0424154     0.0408312    -0.0404705   -0.00501277    0.00906681    0.00674325   0.000495678  -0.000243181   0.000659162  -0.000640193
     0.200173     0.0177595     0.0181745     0.0384033    -0.0316257   0.000762556     0.0101294      0.010382   0.000603555    0.00017643  -0.000388648   -0.00039472
     0.192426     0.0168082     0.0259855     0.0432851    -0.0373411    0.00120139    0.00965971     0.0082873   0.000162852  -0.000116748   0.000258851  -0.000658135
      0.20386     0.0183594     0.0391859      0.043818    -0.0404166   -0.00465915    0.00832148     0.0040564  4.36062e-005  -0.000154104   0.000290346   0.000239365
     0.200732     0.0218546    0.00364831      0.026907      -0.02999   0.000917873    0.00881922     0.0103074   0.000334672  -0.000314679  -0.000317581  -0.000450554
     0.188092     0.0208978   -0.00236372     0.0288198    -0.0288023    0.00496076      0.010144     0.0128968   0.000104357  -0.000275784  -0.000501582  4.77611e-006
     0.191033     0.0208834     0.0181882     0.0406502    -0.0325217   -0.00128608    0.00929421     0.0098809   0.000551017   0.000283278   0.000397111   -0.00011374
     0.200177     0.0240143     0.0405579     0.0461896    -0.0362577     -0.010685     0.0090637    0.00571165  -0.000503022  -0.000374217   0.000728231  -0.000473351
     0.193772     0.0229349      0.044304     0.0480434    -0.0362862   -0.00888835    0.00789179    0.00627313  -0.000118733  -0.000620238   0.000339595  -0.000732527
     0.194265      0.025689     0.0333201     0.0475529    -0.0320625   -0.00807477     0.0107457    0.00686428 -1.23967e-005  -0.000706148   0.000550679  -0.000256593
     0.201387     0.0258313     0.0476046     0.0528411    -0.0370768    -0.0127789    0.00950128    0.00205935   0.000266766  -0.000204456   0.000477568  -0.000218055
      0.21015     0.0231976     0.0655545     0.0594007     -0.045657     -0.017515    0.00679007   -0.00131275  4.05764e-005  -0.000162633    0.00029448   0.000205866
     0.215575     0.0192397     0.0616866     0.0525349    -0.0452762    -0.0147538    0.00668675   0.000300852  -0.000451067   0.000172125   0.000471244  5.94303e-006
     0.217361     0.0177912     0.0549117     0.0515049    -0.0426477     -0.014519    0.00667071   0.000444035  -0.000180643  -0.000767869  -0.000419325  -0.000128752
     0.212222     0.0239116     0.0178876      0.038455    -0.0296729   -0.00455314    0.00811582    0.00814548  -0.000217212   0.000119267    0.00064789  -0.000390819
     0.197737     0.0248767    -0.0200865     0.0166766    -0.0154883     0.0102172     0.0109141     0.0171464  -0.000176449  -0.000119876   0.000101788    0.00076706
     0.202721      0.023935    0.00674674     0.0220431    -0.0225767    0.00382585     0.0100429     0.0127929 -8.20504e-006   0.000471698  -0.000179394    0.00033459
      0.21258     0.0205871     0.0287009     0.0210194    -0.0281298   -0.00423063      0.011637    0.00683468   -0.00044907   0.000196233   0.000474033  5.86942e-005
      0.21662     0.0204067     0.0273852     0.0164466    -0.0299357   -0.00594588      0.013168    0.00641938  -0.000552544   0.000291525   0.000261173   -0.00041215
       0.2128      0.024961     0.0365083     0.0374361    -0.0399745    -0.0109632     0.0114057    0.00389747  -0.000164645  2.84869e-005  -0.000133947   -0.00069911
      0.20411      0.026869     0.0443714     0.0575052    -0.0476314    -0.0119671     0.0097798    0.00131964   0.000326641  -0.000833303   0.000940722  -0.000267163
     0.211367     0.0216315     0.0531266     0.0423155    -0.0463496   -0.00849882     0.0105269    0.00187837    -0.0001727   0.000686544   0.000396781  8.02253e-005
     0.213987     0.0171564     0.0580914     0.0423594    -0.0478079   -0.00706211     0.0100148    0.00195416    -0.0010115  -0.000799641   0.000620303  -0.000110211
     0.211036     0.0213625     0.0558616     0.0474256    -0.0475894   -0.00652802    0.00813543    0.00172488  -0.000132389  -0.000215723  -0.000676909   0.000384402
     0.221611     0.0217503     0.0668179     0.0481041    -0.0495127    -0.0109653    0.00732889   -0.00140059  -0.000185893 -9.84567e-005     0.0001111    0.00065554
     0.212555     0.0211627     0.0323808      0.037594    -0.0390573   -0.00378043    0.00916526    0.00389672  -0.000165238  2.93048e-005  -0.000136323  -0.000697906
     0.194238      0.020395   -0.00923929     0.0189152    -0.0244706     0.0130855     0.0108359     0.0159429   0.000326989   0.000340769   0.000210904    0.00037329
     0.198295     0.0235739   -0.00481903     0.0250162    -0.0264468     0.0118734     0.0104494     0.0163262   0.000325548   0.000332769   0.000210231   0.000370394
     0.204441     0.0247136     0.0102445      0.036582    -0.0313186    0.00332662    0.00998841     0.0114331   0.000219125   0.000418077 -1.69473e-006  -0.000128805
     0.208602     0.0203033     0.0361554     0.0450564    -0.0410709   -0.00221653    0.00881472    0.00478557   0.000164268  -0.000110256   0.000259053  -0.000674746
      0.20253     0.0145178     0.0233956     0.0291336    -0.0366901    0.00502647     0.0091047    0.00771451   0.000166272 -9.83546e-005   0.000259645  -0.000651936
      0.21025     0.0153333     0.0231407     0.0155244    -0.0300892    0.00517374      0.011797    0.00903528  -0.000396477  9.23919e-005  -0.000313854  -0.000215348
     0.219628     0.0181485     0.0412308     0.0244714    -0.0373154   -0.00188056     0.0102202    0.00382838  -0.000554037  -0.000357703  -0.000268142   -0.00122465
