    0.0541565    -0.0180418     -0.174053    -0.0566077    0.00327824     0.0125951     0.0063449   -0.00618981   0.000487706   0.000581751   0.000525967  -0.000611467
    0.0464137    -0.0306008     -0.168684    -0.0670908     0.0106434    0.00354718     0.0096197   -0.00540752   0.000594633 -6.15573e-005 -8.33942e-005 -1.83894e-005
    0.0481931    -0.0335286     -0.172823    -0.0697221    0.00221483    0.00364453     0.0128174   -0.00341757   0.000180047   0.000436867   0.000830352   -0.00086506
    0.0449962    -0.0314762     -0.170796    -0.0646258    -0.0146191    0.00852704     0.0105408    -0.0026405   0.000352929   0.000978945 -3.23532e-005   -0.00022364
    0.0488512    -0.0351239       -0.1722    -0.0626115    -0.0159218     0.0127379    0.00939209   -0.00373684  -0.000207376   0.000362284   0.000304145  -0.000440908
    0.0599759    -0.0337035     -0.172341    -0.0560873  -0.000644942     0.0103513    0.00991339   -0.00496871   0.000157394 -9.24101e-005   0.000806614 -1.88618e-005
       0.0548     -0.035011     -0.173966    -0.0552046    0.00506194    0.00646998    0.00516973   -0.00732085   0.000228917   0.000103498   0.000555172  -0.000573139
    0.0573428    -0.0328231     -0.175433    -0.0533236    0.00295449    0.00821204    0.00509354   -0.00786048   0.000481743   0.000573156   0.000537527  -0.000612471
    0.0635943    -0.0382373     -0.173147    -0.0522539    0.00381882    0.00707941    0.00644971   -0.00767872  -0.000421577  -0.000439268  4.91991e-005  -0.000106892
    0.0607334     -0.037239     -0.172421    -0.0545903    0.00522535    0.00600175    0.00660345   -0.00736498 -5.50846e-005   0.000616092   0.000588574  7.35158e-005
    0.0593339    -0.0362146     -0.175355     -0.047509    0.00507694     0.0086555     0.0063206    -0.0076776  -0.000477746  -0.000119115   0.000355126  -0.000402722
    0.0567749    -0.0407128     -0.178628    -0.0471469    0.00786724    0.00592558    0.00708566   -0.00819233  -0.000229055    0.00034746   0.000341854  -0.000440783
    0.0391557    -0.0408923     -0.168751    -0.0654523    -0.0019898    0.00168498     0.0144479   -0.00499867   -0.00067675   0.000604521  9.16322e-005  -0.000308121
     0.044361    -0.0360113     -0.172112    -0.0559311   0.000416973    0.00613613    0.00934227   -0.00533009   0.000234334   0.000106406   0.000542683  -0.000573526
    0.0600843    -0.0382656     -0.177904    -0.0442483     0.0116318    0.00792913    0.00523543    -0.0068667   0.000147862  -0.000103773   0.000835112 -1.91343e-005
    0.0528132    -0.0494216     -0.177583    -0.0525613    0.00234048    0.00838212    0.00850009   -0.00452178  -0.000217719   0.000354265   0.000326476  -0.000438723
     0.058751    -0.0457041     -0.178654    -0.0452071     0.0104535    0.00833489    0.00552404   -0.00697328  -0.000225868   0.000348721    0.00034345  -0.000439784
    0.0454863    -0.0481238     -0.166181    -0.0565502    0.00806296    0.00172991    0.00983159   -0.00674107  -0.000562137  -0.000324711   0.000618729   0.000150896
    0.0499054    -0.0536352     -0.171658     -0.053314    0.00541092     0.0044101    0.00709346   -0.00717828  -0.000788277  -0.000269718   0.000673039  -0.000658654
    0.0580722    -0.0483497     -0.167326    -0.0528319  -0.000739479     0.0101063    0.00490741   -0.00702513   -0.00047387  -0.000117682   0.000347958  -0.000403661
    0.0475594    -0.0482313      -0.15515    -0.0617746    -0.0081393    0.00954514     0.0100119    -0.0058062   0.000171769   0.000711446  -0.000282953  -0.000741566
    0.0553257    -0.0442015     -0.164528    -0.0542612    0.00169288    0.00837642    0.00961395   -0.00685886   -0.00022355   0.000354919   0.000322278  -0.000442697
    0.0596317    -0.0500964       -0.1633    -0.0553581    0.00602167    0.00823175     0.0098795   -0.00538712  -0.000221974   0.000357403   0.000321021  -0.000441147
    0.0666535    -0.0508443     -0.164501    -0.0467589     0.0141781     0.0109175     0.0061589   -0.00923828  -0.000686454   0.000599065   0.000119728  -0.000309799
    0.0589683    -0.0341628     -0.163071    -0.0446322    0.00594746     0.0122682     0.0054752   -0.00651222   0.000289353  -0.000215589   0.000250086  -0.000281336
     0.052691    -0.0397234     -0.154764     -0.055727    0.00159371     0.0100398     0.0106094   -0.00648692   0.000541256   0.000259117   0.000213208  -0.000320365
    0.0533218     -0.046965     -0.156015    -0.0575915    0.00401611     0.0090599     0.0123441   -0.00648774   0.000231131   0.000112022   0.000530309  -0.000575338
    0.0475472    -0.0421804     -0.154907    -0.0572076    -0.0036333     0.0115556     0.0120613   -0.00738592 -5.02809e-005   0.000623372   0.000561738  6.96166e-005
    0.0489188    -0.0473727     -0.155872     -0.056101   -0.00334984     0.0138469     0.0109617   -0.00719513  8.88508e-005   0.000507798 -1.21616e-005  -0.000187602
     0.057778    -0.0573507     -0.154123    -0.0575605    0.00735947    0.00967611     0.0124575   -0.00452841   0.000543331   0.000262586   0.000208107  -0.000317236
    0.0575201    -0.0632889     -0.149015    -0.0648979     0.0093899    0.00364722     0.0150342   -0.00490903  -0.000534604   0.000213406   0.000626551   -0.00069819
    0.0595928    -0.0532724      -0.15352    -0.0508307    0.00234514    0.00978433     0.0111864    -0.0066157    0.00028826  -0.000212582   0.000232819   -0.00028183
     0.063753    -0.0491111     -0.157106    -0.0417809    0.00469894     0.0131194    0.00609925   -0.00757207   0.000174171   0.000425239   0.000854956  -0.000874186
     0.062129    -0.0600859     -0.154277    -0.0524777    0.00198571    0.00970387     0.0110106   -0.00415083  -0.000217785    0.00035844   0.000314774  -0.000443618
    0.0601171    -0.0607723     -0.155505    -0.0527679    0.00320674    0.00989078     0.0125873   -0.00338431  9.24488e-005   0.000508491 -9.22718e-006  -0.000185926
    0.0600962    -0.0589445     -0.160346    -0.0480648    0.00773351     0.0100243     0.0113425   -0.00425005  -0.000219475   0.000357331   0.000320161  -0.000441998
     0.045597    -0.0614334     -0.155357    -0.0557439   -0.00430539     0.0107553     0.0136116   -0.00164868   0.000245347    0.00011445   0.000519795  -0.000575014
     0.041021    -0.0618866     -0.155354    -0.0579831   -0.00393624    0.00932581     0.0148436   -0.00202801   0.000243553   0.000114274   0.000517629   -0.00057471
    0.0528668    -0.0704417     -0.158637     -0.051471     0.0126949    0.00666818     0.0123677   -0.00473474  -0.000419778  -0.000435447  3.48798e-005  -0.000106196
    0.0519201    -0.0701339      -0.15859    -0.0505284      0.008618    0.00613709     0.0139328    -0.0040391  -0.000726091  -0.000583338   0.000351228  -0.000363631
    0.0519014    -0.0672346     -0.157998    -0.0489703   -0.00113884     0.0107467     0.0140702   -0.00334862  -0.000157601   3.7021e-005  5.20567e-006  -0.000147375
    0.0625146    -0.0707145     -0.156734    -0.0486539     0.0180776    0.00935385    0.00974172   -0.00583298   1.1178e-006   0.000298261   0.000278482   0.000369419
    0.0663789    -0.0614932     -0.162007    -0.0409506     0.0125698     0.0126046    0.00978076    -0.0051874   -0.00053046   0.000207412   0.000648477   -0.00069863
    0.0448428    -0.0727207     -0.148714    -0.0643356    -0.0110533    0.00872545      0.016716   -0.00149985  -0.000127765   0.000569797  1.58408e-005  -0.000996741
    0.0475626    -0.0804651     -0.148819    -0.0670119   0.000958873    0.00374071     0.0164371   -0.00341525   0.000145957   0.000187873  -0.000326368    0.00011106
    0.0684074    -0.0658165     -0.162111     -0.038332     0.0127661     0.0104062    0.00794541   -0.00580083  -0.000304982    0.00014532   0.000608383   0.000110573
    0.0686382    -0.0824405     -0.153876    -0.0446423     0.0184508    0.00335048     0.0102676   -0.00666376  -0.000656406  -0.000385742   0.000100141  -0.000918753
     0.070255    -0.0820058     -0.163444     -0.040559     0.0239715    0.00380217    0.00918625   -0.00850808  -0.000433214  -0.000445946  6.07664e-005  -0.000106358
      0.06252    -0.0643506     -0.169793    -0.0385732      0.011716    0.00766798    0.00966734    -0.0072567   -0.00048035  -0.000122125   0.000356103  -0.000403084
    0.0592683    -0.0729273     -0.162775    -0.0415036    0.00519949    0.00813086     0.0134971   -0.00462919  -0.000790257  1.41919e-005  -0.000453065  -0.000529549
    0.0614581     -0.079207     -0.161895    -0.0413019    0.00950255    0.00603119     0.0130811   -0.00607545  -0.000250421  -0.000177268   0.000296097   0.000406552
    0.0572352    -0.0898183     -0.162664    -0.0481761     0.0132033   -0.00343053     0.0157664   -0.00679965  -0.000885075  -0.000198671  -0.000173727  2.54589e-005
    0.0587142    -0.0925208     -0.167808    -0.0464276    0.00868221      0.003364     0.0161465    -0.0051754  -0.000729535  -0.000588347   0.000354828  -0.000361294
    0.0620758    -0.0899741     -0.166671    -0.0510645     0.0110862    0.00202218     0.0190073   -0.00470328  -0.000649483  -0.000378753  7.61916e-005  -0.000913618
    0.0685834    -0.0934425     -0.170964    -0.0463709     0.0188939   -0.00177631     0.0155997   -0.00367931 -3.41872e-005 -8.81055e-005  -0.000546062  -0.000399414
    0.0682256    -0.0949063     -0.170574    -0.0417018     0.0139831    0.00376503     0.0121387   -0.00671458  -0.000628124   0.000272094  -0.000185733 -1.12444e-005
    0.0655962     -0.094678      -0.16678    -0.0441274     0.0136893    0.00282784      0.012742   -0.00581389  -0.000480805   -0.00012215   0.000349392   -0.00040059
    0.0640178    -0.0872271       -0.1713     -0.044558    0.00966497    0.00496493       0.01302   -0.00686424  -0.000308628   0.000143154   0.000600184   0.000114334
    0.0562172    -0.0905425     -0.161673    -0.0513648    0.00685622     -0.001908     0.0155147   -0.00601062  -0.000880261  -0.000196459  -0.000180501  2.52865e-005
    0.0554815    -0.0890822     -0.155541    -0.0537699    0.00464207   -0.00087232     0.0165244   -0.00324434  -0.000621188   0.000277965  -0.000206713 -1.42464e-005
    0.0637905    -0.0826996     -0.158246    -0.0458346   0.000942987    0.00686751     0.0129468   -0.00463247  -0.000415449  -0.000438674  3.31626e-005  -0.000108806
    0.0681626    -0.0944889     -0.155472    -0.0530272    0.00640199    0.00486542     0.0139526   -0.00314295  -0.000334594  -0.000229618  -0.000243147  -0.000659577
    0.0731815    -0.0979099     -0.156642    -0.0566998    0.00653875    0.00644236     0.0168169   -0.00279831  -0.000413487  -0.000429071  1.68683e-005  -0.000103707
    0.0753858    -0.0930333     -0.157453    -0.0491035    0.00557268     0.0107063     0.0153446   -0.00431078  -0.000585486  -0.000694936  -0.000232355  -0.000620075
    0.0733749    -0.0997635     -0.156246    -0.0501661    0.00975697    0.00786114     0.0166574   -0.00467647   0.000117589  -0.000474508 -2.99129e-005   -0.00079078
    0.0721529     -0.103707     -0.154893    -0.0485537     0.0134227    0.00387722     0.0173007   -0.00569248  -0.000878921  -0.000189275  -0.000188998  2.65351e-005
    0.0678991    -0.0957808     -0.155921    -0.0466341    0.00746392    0.00723344     0.0143175   -0.00332413  -0.000642935  -0.000378482    7.874e-005  -0.000916881
    0.0692729    -0.0984421     -0.151481    -0.0496057    0.00815206    0.00440219     0.0163759   -0.00485476  -0.000476979  -0.000114976   0.000330108  -0.000403157
    0.0698066     -0.106005     -0.150583    -0.0538571    0.00943221    0.00150372     0.0176984   -0.00550547   -0.00034314   -0.00023164  -0.000245983  -0.000660292
    0.0712199     -0.107685     -0.156354    -0.0514373      0.011961     0.0019338     0.0161927   -0.00464541  -0.000478825  -0.000116421   0.000333857  -0.000400583
     0.072738     -0.113142     -0.154549    -0.0551634    0.00789622    0.00358628     0.0186777   -0.00181431  -0.000925317   0.000137593   0.000101311  -0.000266969
    0.0665139     -0.112287     -0.152568    -0.0626695   -0.00670309     0.0058039     0.0216496   0.000838958  -0.000458366  -0.000102703   0.000297454  -0.000399377
    0.0756064      -0.10892     -0.157963    -0.0521703    0.00665414    0.00203249     0.0179311   -0.00156729  -0.000332779  -0.000228557  -0.000248567  -0.000657813
    0.0853778     -0.120762     -0.153761    -0.0489277     0.0189755    0.00242469     0.0163139   -0.00315891  8.31203e-005   0.000503356 -1.97125e-006  -0.000181404
    0.0847743     -0.121848     -0.145135    -0.0543097     0.0115657   0.000305453     0.0184606   0.000170873  -0.000389261  9.51734e-005  5.16964e-005  -0.000954376
    0.0881285     -0.109789     -0.162435    -0.0512245     0.0131751    0.00281438      0.016667   0.000271751  -0.000467518   -0.00010935   0.000329646  -0.000396873
    0.0834193     -0.106371     -0.157307    -0.0490583     0.0120628    0.00634476     0.0174325  -0.000661098  -0.000467583  -0.000107796   0.000324789  -0.000398689
     0.082805     -0.104381     -0.151179    -0.0446471       0.00955    0.00589391     0.0165473   -0.00152232  -0.000867669   -0.00018545  -0.000192011  2.55049e-005
     0.090433     -0.104955     -0.155847    -0.0460384     0.0145551    0.00554293       0.01712   -0.00280564  -0.000473703  -0.000110575   0.000331049   -0.00040007
    0.0888585     -0.109977     -0.155793    -0.0533018    0.00961846    0.00914054     0.0203696   -0.00337181  -0.000925903   0.000143816  9.42766e-005  -0.000265781
    0.0842412     -0.115946     -0.155767    -0.0573462     0.0102436    0.00448966       0.02109   -0.00428441   0.000311928   0.000320068   0.000244659   -0.00112269
    0.0842584     -0.109834     -0.151908    -0.0562191    0.00962178    0.00590035     0.0198903   -0.00450997  -0.000671078  -0.000897481    2.958e-005 -6.48439e-005
    0.0914498      -0.10895     -0.157618    -0.0455673    0.00751517     0.0127609     0.0168378   -0.00324246  -0.000239636  -0.000163477   0.000271872   0.000410849
    0.0887488     -0.115664     -0.151492    -0.0478479     0.0177729    0.00611687     0.0180609   -0.00505439   0.000284136  -0.000210384   0.000226698  -0.000275565
    0.0843863     -0.118463     -0.147871    -0.0520485     0.0178111    0.00545707     0.0169969   -0.00691725  -0.000599015  -0.000698264  -0.000227928  -0.000619542
    0.0806086     -0.110661      -0.15001    -0.0502635    0.00529958    0.00769232     0.0169372   -0.00464766   -0.00072575  -0.000580693   0.000339581  -0.000363227
    0.0793674     -0.112048      -0.14986    -0.0512195    0.00639057    0.00342376     0.0178593    -0.0044099  -0.000419311  -0.000435042  2.21505e-005  -0.000106836
    0.0837068     -0.130304     -0.147681    -0.0509895     0.0152338    0.00175404     0.0162155   -0.00564495  -0.000230584   0.000352034   0.000316912  -0.000440129
    0.0883854     -0.123554     -0.144595    -0.0454841     0.0118827    0.00485467     0.0117265   -0.00561256  -0.000342583  -0.000235777  -0.000231717  -0.000662087
    0.0879008     -0.100052      -0.14682    -0.0396158    0.00567641    0.00518986     0.0123089   -0.00727425  -0.000798845  9.33212e-006  -0.000446866   -0.00053352
    0.0896933     -0.104446     -0.144568     -0.044457    0.00558195    0.00459812     0.0138265   -0.00644421  -0.000285821  -0.000555969  -0.000539072  -0.000369051
    0.0823251     -0.108656      -0.14179     -0.050874    0.00440611     0.0033136     0.0155494   -0.00243095  -0.000471654  -0.000113366    0.00032718  -0.000405011
    0.0806846     -0.107853     -0.143185    -0.0500101    0.00154175     0.0050799     0.0164334    -0.0031914  -0.000219057   0.000356562   0.000306514  -0.000444189
    0.0878882     -0.116675      -0.14236    -0.0491475    0.00665229    0.00632728     0.0141566    -0.0021238  -0.000413207  -0.000433323  2.49349e-005  -0.000108095
    0.0880835     -0.118595     -0.143481    -0.0511084     0.0155005  -0.000400592     0.0162302   -0.00263919   -0.00110435  -0.000131613  -0.000138152  -0.000784855
    0.0920621      -0.11744     -0.149081    -0.0449614      0.010905    0.00153779     0.0143681   -0.00334196  -0.000737273  -0.000308104  -0.000755263  -0.000233399
    0.0893071     -0.114766     -0.150933    -0.0443081    0.00465577    0.00606613     0.0135503   -0.00297773  -0.000161805  3.22419e-005  1.46848e-005  -0.000146762
    0.0849558     -0.117718     -0.148055    -0.0493797    0.00457648    0.00297772     0.0160859   -0.00266046  -0.000471926  -0.000114787   0.000328602   -0.00040314
    0.0762137     -0.118995     -0.143202    -0.0574595   -0.00914281    0.00440097     0.0206451   0.000512827  -0.000459805  -0.000106724   0.000302943  -0.000403515
    0.0809933     -0.122821     -0.141682    -0.0540495    0.00570869    0.00272498     0.0188674   0.000296771  -0.000466521  -0.000108845   0.000316297  -0.000402247
    0.0948772     -0.115101     -0.149966    -0.0422389     0.0154483    0.00625921     0.0148036    -0.0022296  -0.000163934  3.52057e-005  1.63138e-005  -0.000145017
    0.0948023     -0.114898     -0.149607    -0.0419355     0.0201093      0.004373     0.0157713   -0.00175144   0.000143147   0.000183352  -0.000302179   0.000112162
    0.0873034     -0.119912     -0.137904     -0.048585      0.020707     0.0008773     0.0142433   -0.00217494     -0.000796  1.60964e-005  -0.000453371  -0.000529101
    0.0847923     -0.116905     -0.143677    -0.0533794    -0.0022007    0.00943885     0.0166084   0.000641866  -0.000402191  -0.000426211  7.67575e-006  -0.000106794
    0.0923093     -0.122743      -0.14497    -0.0536747    0.00450951     0.0063024     0.0186164   -0.00109065  -0.000784229  2.50737e-005  -0.000478616  -0.000526899
    0.0864353     -0.119524     -0.142103    -0.0523412    0.00633685    0.00292765     0.0170897  -0.000944875  -0.000217087   0.000358571   0.000305404  -0.000442013
    0.0881717     -0.122326     -0.142712    -0.0564241    0.00500068    0.00062434     0.0183687   -0.00135967  -0.000869142  -0.000184438  -0.000202049   2.5535e-005
     0.095596     -0.127732      -0.14374    -0.0553263    0.00812439    0.00433586     0.0182061   -0.00224942  -0.000643062  -0.000372215  6.37046e-005  -0.000915463
     0.103701     -0.133046     -0.152082    -0.0476567     0.0122843      0.006074     0.0143561   -0.00109971   0.000375548 -5.14978e-006 -4.15406e-005   -0.00082822
     0.100281     -0.135156     -0.147492    -0.0536038     0.0127902   0.000768274      0.014989   -0.00245735  -0.000166533  3.41877e-005  1.22522e-005  -0.000143325
    0.0879132     -0.127282      -0.14488    -0.0593167   -0.00229223    0.00429687     0.0175542    0.00115687  -0.000151638  4.20008e-005 -1.00846e-005  -0.000144203
    0.0927772      -0.13147     -0.147518    -0.0566678    0.00105532    0.00350245     0.0176751    0.00175172  -0.000858885  -0.000180623  -0.000207528  2.80908e-005
    0.0983095     -0.129184     -0.150333    -0.0515696    0.00738467    0.00506633     0.0179029   0.000712586  -0.000155212  4.12766e-005 -1.32407e-006  -0.000142428
    0.0951557     -0.127903     -0.146677    -0.0521496     0.0112161       0.00175     0.0174516  7.26159e-005 -7.94813e-005   0.000243343  -0.000266483  -0.000697213
     0.101191     -0.127475     -0.143187    -0.0544406     0.0173561    0.00423406      0.016926   -0.00151896 -2.70593e-005 -7.47988e-005  -0.000570644  -0.000400705
     0.116911     -0.129617     -0.152117    -0.0457503     0.0206077    0.00923721     0.0150646   -0.00333933   0.000678538   0.000146429  -0.000361092  -0.000570323
     0.112792      -0.13602     -0.148019    -0.0490478     0.0208186    0.00914604     0.0152493   -0.00444911  -0.000168671  4.03057e-005  8.99617e-006  -0.000141298
    0.0961084      -0.12858     -0.142529    -0.0551145    0.00900119     0.0111124     0.0187625   -0.00253825  -0.000720777  -0.000571339   0.000325488  -0.000360602
     0.102667     -0.127092     -0.142893    -0.0457754     0.0154459     0.0150913     0.0153952   -0.00268178  -0.000331542   -0.00021968  -0.000253973  -0.000658107
     0.103816     -0.131042     -0.139736    -0.0479508     0.0251373     0.0123863     0.0145736   -0.00310689 -8.53979e-005   0.000248634  -0.000264629  -0.000696112
    0.0973533     -0.124063     -0.140643    -0.0504496     0.0186846    0.00619523     0.0194934   -0.00169627 -2.71535e-005 -7.30822e-005  -0.000575262  -0.000401722
    0.0998973     -0.127104     -0.143579    -0.0460125     0.0120357     0.0107966     0.0162124   -0.00243366  -0.000332343  -0.000223271  -0.000251745  -0.000659273
    0.0904724     -0.136292     -0.136519    -0.0555538    0.00558248    0.00808706     0.0176146 -8.58252e-005  -0.000407671  -0.000425964  6.86988e-006   -0.00010583
    0.0977402     -0.138884     -0.141433    -0.0502105     0.0247375    0.00101594     0.0183435   -0.00267716   0.000283275  -0.000211066   0.000228766  -0.000275242
     0.105344     -0.126275     -0.146296    -0.0391635     0.0272197    0.00406311     0.0131478   -0.00556398  -9.6048e-005   0.000235022  -0.000240556  -0.000698834
    0.0903531     -0.126211     -0.138299    -0.0487415     0.0165688  -0.000852312     0.0167189   -0.00417307 -3.61349e-005 -8.53185e-005  -0.000558551  -0.000405527
    0.0976412     -0.128024     -0.145695    -0.0433092     0.0192336    0.00151021     0.0136772   -0.00377493  -0.000343076  -0.000234903  -0.000228823  -0.000660515
    0.0964323     -0.126118     -0.144009    -0.0428271    0.00906413     0.0054203     0.0132097   -0.00200104  -0.000617002    0.00027976  -0.000201751 -1.49992e-005
    0.0893318     -0.138695      -0.13783    -0.0550842     0.0093011    0.00133702     0.0177347   -0.00160579  -0.000107309  -0.000284956  -0.000302214   0.000150111
     0.101131     -0.141711     -0.143999    -0.0477948      0.013015    0.00635818     0.0144072     -0.001252  -0.000413241  -0.000432723  2.63591e-005  -0.000104808
     0.103446     -0.137172       -0.1509    -0.0375167     0.0200963     0.0058696     0.0102149   -0.00266394    0.00014233   0.000176835  -0.000288677   0.000112388
    0.0989769     -0.130194     -0.149047    -0.0377394      0.024232    0.00209502     0.0122523   -0.00207354   0.000139698   0.000176407  -0.000287571   0.000111832
     0.094993     -0.135091     -0.142409    -0.0461424     0.0181029    0.00248138     0.0156659  -0.000306488   0.000145483   0.000183035  -0.000306512   0.000112066
    0.0892646     -0.142075     -0.139441     -0.053709     0.0172471    0.00263706      0.017819   0.000853764    0.00054653   0.000261691    0.00020241  -0.000314081
    0.0873605     -0.129092     -0.135678    -0.0498855     0.0189932    0.00115455     0.0161324   -0.00187524   -0.00087543  -0.000187534   -0.00018922  2.48299e-005
    0.0937507     -0.131213     -0.143891    -0.0445026     0.0101133    0.00926293     0.0143089  -0.000471035  -0.000409013  -0.000431487  2.42001e-005   -0.00010613
    0.0886856     -0.139654     -0.141554    -0.0557347    0.00759638    0.00822842     0.0173568   0.000750085  -0.000153915  4.37612e-005  -9.1746e-006  -0.000142664
    0.0908986      -0.13135     -0.142751    -0.0520568     0.0164221    0.00276694     0.0181364   -0.00215598 -8.58426e-005   0.000242791  -0.000266507  -0.000697468
    0.0981738     -0.127034     -0.151541    -0.0417906     0.0141924     0.0106897     0.0134308   -0.00268469   0.000121793  -0.000475128 -2.18404e-005  -0.000790435
    0.0883978     -0.124852     -0.144467    -0.0470073     0.0131363    0.00678066      0.016124   -0.00279389  -0.000473224  -0.000111583    0.00032773  -0.000401834
    0.0920521     -0.129757     -0.145009    -0.0477367       0.01325    0.00472156     0.0161167   -0.00250305  -0.000336386  -0.000228884  -0.000244636  -0.000659485
    0.0993406      -0.13312     -0.151724    -0.0430811     0.0142104    0.00747506     0.0152847   -0.00480821  -0.000396277  9.05355e-005  6.34849e-005  -0.000954072
    0.0965316     -0.133875      -0.14773    -0.0497912     0.0177125    0.00188217     0.0170763   -0.00553224 -9.37144e-005   0.000237781  -0.000257648  -0.000697372
    0.0988515     -0.138563     -0.148482    -0.0529692     0.0164003    0.00535285     0.0173346   -0.00422593  8.32622e-005   0.000507409 -1.24945e-005  -0.000180613
    0.0952154     -0.130315     -0.149069    -0.0504737    0.00577737    0.00684242     0.0184834    -0.0024394  -0.000615506   0.000286792  -0.000220714 -1.14391e-005
    0.0992355      -0.13157      -0.14491    -0.0524227     0.0121327    0.00488013     0.0170301   -0.00268522  -0.000336151  -0.000225568  -0.000250682  -0.000658292
     0.101838     -0.130027     -0.137603    -0.0522123     0.0179427     0.0041696     0.0188432   -0.00444344  -0.000935277   0.000138585   0.000104456  -0.000269406
    0.0977895     -0.111771     -0.133343    -0.0445393    0.00904635    0.00864552     0.0180463    -0.0033537  -0.000618968   0.000287436  -0.000217748 -1.74563e-005
    0.0863528    -0.0935969       -0.1256    -0.0475835    0.00250416     0.0146156     0.0124259   -0.00321062 -1.23699e-005  -0.000353499   0.000538173  -0.000541832
    0.0774742    -0.0841288     -0.115038     -0.051963   -0.00257015     0.0138551     0.0158266   -0.00170276  -0.000666374   0.000615282  7.04442e-005   -0.00031913
    0.0890178    -0.0827001      -0.11727     -0.041129      0.017457    0.00989522     0.0136396   -0.00533401   0.000283037  -0.000209687   0.000231898  -0.000288169
    0.0847249    -0.0738722     -0.111113    -0.0394862     0.0183543    0.00806058     0.0126493    -0.0060965   0.000222759    0.00010846   0.000540812  -0.000586967
    0.0762352    -0.0589878      -0.10736    -0.0384189    0.00122143     0.0179414     0.0110154   -0.00277508   0.000298002  -0.000205118   0.000221104  -0.000294115
    0.0722666    -0.0453669     -0.101755     -0.037864   -0.00128193     0.0173306    0.00908084   -0.00456176   0.000374851 -3.16532e-006 -4.46279e-005  -0.000851544
    0.0731267    -0.0411384    -0.0991658    -0.0380272   -0.00235785      0.016718    0.00859716   -0.00350243  1.28293e-005   0.000303867   0.000262264   0.000348003
    0.0732833    -0.0415225    -0.0965277    -0.0368161   -0.00173512     0.0209648    0.00714181   -0.00319373    0.00060788 -5.72344e-005 -9.53673e-005 -4.23243e-005
    0.0714507    -0.0280965    -0.0958339    -0.0313164   -0.00113577     0.0212963    0.00785055   -0.00422478  9.37538e-005   0.000509951 -6.94578e-006  -0.000208053
    0.0732449    -0.0201661     -0.104857    -0.0261711    0.00450397     0.0219314    0.00653064   -0.00369635   0.000720299   0.000525842   0.000474639   0.000176239
    0.0789177    -0.0240769     -0.100278    -0.0252751    0.00733347     0.0216445    0.00566917   -0.00314126    0.00123165 -4.27827e-005    0.00039235    0.00033902
    0.0795099    -0.0225589     -0.095166    -0.0258999    0.00120402     0.0233767    0.00589665    -0.0016747   0.000667857  -0.000378122  -0.000390191   0.000250594
    0.0682505    -0.0240214    -0.0854842    -0.0381191      0.001304     0.0198858     0.0125089    0.00027981  -0.000459958 -9.77151e-005    0.00031278   -0.00042529
    0.0721176    -0.0155984    -0.0919472     -0.029355    0.00168464     0.0208839     0.0116897  -0.000899666    0.00066751  -0.000373888  -0.000402807   0.000250439
    0.0724696   -0.00538035    -0.0919308    -0.0221854    0.00129703     0.0237877    0.00803245   -0.00114881 -1.43915e-005 -7.21847e-005   -0.00056189  -0.000429856
    0.0736033    -0.0034827     -0.085692    -0.0245665     0.0124459     0.0175152    0.00865734   -0.00339379  -0.000245292  -0.000164954   0.000292501   0.000380869
    0.0698571   -0.00307701    -0.0817537      -0.02964    0.00490025     0.0197006    0.00835495   -0.00327252   0.000148207   0.000191027  -0.000308066   8.2985e-005
    0.0633284    -0.0152424    -0.0701279    -0.0408945   -0.00628472     0.0222343    0.00993378   -0.00113761   -0.00032276  -0.000214056  -0.000264838  -0.000688935
    0.0700385    0.00714007    -0.0783559    -0.0287762   -0.00762037     0.0256059    0.00761435   -0.00159153 -9.27969e-005  -0.000273483  -0.000301913   0.000119473
    0.0663656     0.0124141    -0.0841282    -0.0251011     -0.014229     0.0273935    0.00648694     -0.002141  4.70542e-005  -0.000392121  -0.000873771  -0.000139373
    0.0582046    0.00438357    -0.0770425    -0.0344336    -0.0125674     0.0237951    0.00775028   -0.00158974   0.000468825   0.000342813  -0.000643597   0.000336824
    0.0515902     0.0227256    -0.0711505    -0.0311253    -0.0178456     0.0245629    0.00754789  -0.000900875   0.000561351   0.000268409   0.000197343   -0.00035198
    0.0554567      0.029361    -0.0735711    -0.0214319    -0.0186679     0.0255621    0.00510741   -0.00129235   0.000698734   0.000147485  -0.000364767   -0.00061231
    0.0615636     0.0318287    -0.0812842    -0.0266044    -0.0169686     0.0297476    0.00659153   -0.00135635  2.82411e-005   0.000313776   0.000251785   0.000336165
    0.0578431     0.0276232    -0.0813634    -0.0354992    -0.0229069     0.0289433     0.0110138  -0.000685935  -0.000140086  5.50601e-005 -2.00738e-005  -0.000176749
    0.0578147      0.028054     -0.088067    -0.0315202    -0.0202548     0.0233923    0.00970382   -0.00250451   0.000672669  -0.000374448  -0.000408847    0.00024283
     0.065446     0.0329117    -0.0966037    -0.0242495    -0.0182952      0.029238    0.00678722   -0.00157066 -5.03954e-006 -6.82498e-005  -0.000571908   -0.00043333
    0.0724155     0.0240722     -0.096064    -0.0232127   -0.00763957     0.0261611    0.00568113   -0.00219653  -0.000320699  -0.000219259  -0.000240965  -0.000688645
    0.0667276     0.0233265    -0.0884776    -0.0300578   -0.00258387     0.0184981    0.00840448   -0.00250199   0.000663769  -0.000377167  -0.000392858   0.000245177
    0.0557982     0.0307817    -0.0734554    -0.0391449    -0.0107092     0.0179666     0.0129564   -0.00149808   0.000782097   0.000214898    0.00014234   0.000460842
    0.0568829     0.0319951    -0.0653682    -0.0402854    -0.0114535     0.0218905     0.0126423   -0.00206036   0.000474034  7.03511e-005   0.000456239   0.000202731
     0.065493     0.0433406    -0.0642038    -0.0273449    -0.0100435     0.0267823    0.00611849    -0.0021231   0.000280569   -0.00072454    0.00018863   0.000533942
    0.0641255     0.0493579    -0.0476511    -0.0248877    0.00340395     0.0233945    0.00485625   -0.00391869  -0.000560483 -2.82466e-005  -0.000506908   0.000240641
    0.0566096     0.0529456    -0.0288492    -0.0284331     0.0111896      0.019291    0.00701241   -0.00618598    0.00033786  -0.000524305 -7.12179e-005 -2.81465e-005
    0.0538827     0.0557085    -0.0170735    -0.0319668     0.0181687     0.0154517    0.00835965   -0.00648254   0.000503129  -0.000259772    0.00018264   0.000484569
    0.0497112     0.0517863   -0.00938374    -0.0358491     0.0215358     0.0123026    0.00947506   -0.00728958   0.000132307 -8.75597e-005   0.000804855 -6.87771e-005
    0.0458342     0.0634719    0.00264577    -0.0314318     0.0204063     0.0161608    0.00782873   -0.00828548  -0.000129137  -0.000277479  -0.000289997  9.62221e-005
    0.0473645     0.0661379     0.0157947    -0.0277068     0.0334337     0.0138316    0.00528925   -0.00963974  -0.000787967   0.000403285   0.000383463   0.000187624
    0.0504011     0.0522152     0.0191849    -0.0261128     0.0379853     0.0128652    0.00450604   -0.00977573  -0.000279019  -0.000167761    0.00030335   0.000351132
    0.0534867     0.0497771     0.0197354    -0.0245441     0.0388724     0.0112449    0.00120344   -0.00964774  -0.000360657  -0.000377023   0.000584697   0.000903949
    0.0512249     0.0449579     0.0227824    -0.0270442     0.0401343     0.0105813    0.00217485    -0.0103062  -0.000591257  -0.000319694   0.000630942  9.37383e-005
    0.0526209      0.038151     0.0267858     -0.028155     0.0413886    0.00721178    0.00447583   -0.00949419   0.000106126   0.000181564  -0.000283137  5.30235e-005
    0.0513571     0.0365573     0.0329083    -0.0255233     0.0433698    0.00611547    0.00370263   -0.00957171  -0.000285423  -0.000174272    0.00031277   0.000347866
    0.0428217     0.0442798     0.0353926    -0.0255691     0.0339552     0.0113744    0.00156204    -0.0121135  -0.000284774  -0.000175085   0.000309211    0.00034503
    0.0402985     0.0540394     0.0314255    -0.0189281     0.0325131    0.00932943  -0.000561361    -0.0120703   0.000341143  -0.000164351   0.000794151   0.000725343
    0.0355178     0.0519415     0.0315014    -0.0238804     0.0288826     0.0096184    0.00210582     -0.010885    0.00017369   -0.00042437   0.000528129   0.000211898
    0.0361856     0.0420797     0.0291288    -0.0258962     0.0314257    0.00874931    0.00424327    -0.0115713 -8.98496e-005  -0.000613686  -0.000571029   0.000383881
    0.0313964     0.0415904      0.029581    -0.0310658     0.0302554    0.00786022    0.00544575    -0.0114819  -0.000398573   -0.00076003  -0.000256805   0.000128061
    0.0221754     0.0604379     0.0459231    -0.0302187       0.01864     0.0105306    0.00614965    -0.0100235  -0.000139099  -0.000287502  -0.000285323  8.20335e-005
    0.0263551     0.0665762     0.0399297    -0.0276946     0.0299989    0.00777262    0.00430366    -0.0119002  -0.000148269  -0.000291579  -0.000269455  8.35986e-005
    0.0187157     0.0717959     0.0341635    -0.0362564     0.0252729    0.00881487    0.00466874    -0.0119882  -0.000454449  -0.000436048  4.17101e-005  -0.000170541
    0.0201665     0.0828606     0.0406403    -0.0207289     0.0240759     0.0122901    0.00120306    -0.0122218   0.000107653   0.000175852  -0.000281608   4.1058e-005
    0.0218828     0.0766192     0.0391935    -0.0212502     0.0313564    0.00930159    0.00191092    -0.0122984  -0.000148817  -0.000294779  -0.000260106  8.17778e-005
    0.0165316     0.0678626     0.0390835    -0.0301466     0.0293594     0.0068591    0.00222643    -0.0109343   0.000251863  -0.000219292   0.000254902  -0.000344007
    0.0151994     0.0652773     0.0355027    -0.0279562     0.0244465    0.00974388    0.00306603   -0.00973976  -0.000196875  3.00967e-005  3.08089e-005  -0.000211098
   -0.0028995     0.0752261     0.0354478    -0.0352904     0.0103594     0.0103945    0.00524181    -0.0089912   0.000378273  -0.000857026  -0.000373261   0.000246735
   -0.0064865     0.0767987     0.0325403    -0.0391705    0.00555897    0.00728212    0.00487028    -0.0100391   0.000116696   0.000177909  -0.000304114  4.40703e-005
   0.00225006     0.0761346      0.025466    -0.0346537       0.01109    0.00896763    0.00565712    -0.0105816  -0.000102973  8.99156e-005   0.000544256   0.000858024
  0.000190344     0.0719104     0.0226984    -0.0397334     0.0144246    0.00383067    0.00826536   -0.00927315  -0.000275526  -0.000173626   0.000287779   0.000345759
  -0.00726981     0.0568741     0.0260713    -0.0482074    0.00519297    0.00342855     0.0118485   -0.00791417  -0.000269751  -0.000169703    0.00026886   0.000346613
   -0.0100728     0.0556129     0.0283429    -0.0489203   -0.00655684    0.00654116     0.0127254   -0.00713697  -0.000888758  -0.000184188   -0.00021476 -3.74345e-005
   -0.0129004     0.0595976     0.0274332    -0.0472386    -0.0123599     0.0057615     0.0104603   -0.00833635  -0.000182669  3.28025e-005 -7.22614e-006  -0.000210945
   -0.0169684     0.0593232     0.0284686    -0.0449444    -0.0111005    0.00574312    0.00992911   -0.00981004  -0.000186457  2.97843e-005  -2.9753e-006  -0.000212029
   -0.0163308     0.0507372     0.0203698    -0.0461001    -0.0084736    0.00548169     0.0103939   -0.00859661   0.000124624   0.000179012  -0.000323649  4.83955e-005
   -0.0218369     0.0350602    0.00800429     -0.057897    -0.0154539    0.00185461     0.0136838   -0.00767116  -0.000124051  -0.000288334  -0.000319579    9.294e-005
   -0.0321176     0.0306877    0.00685309    -0.0632548    -0.0182065   -0.00218853     0.0166247    -0.0065976 -4.23791e-005 -8.31769e-005  -0.000597638  -0.000459746
    -0.024595      0.031102     0.0035349    -0.0514342     -0.010673    0.00192999     0.0102403   -0.00675283 -4.27329e-005 -8.79291e-005  -0.000576845  -0.000460081
   -0.0200267     0.0194527   -0.00289698    -0.0551765    -0.0114062   -0.00273576     0.0124313   -0.00718118   0.000272015  -0.000221096   0.000214725  -0.000331918
   -0.0221959     0.0147108   -0.00432373    -0.0588799    -0.0249433   -0.00152099     0.0132809   -0.00539741   0.000452945  4.54229e-005   0.000456621    0.00018252
   -0.0105812     0.0109878   0.000543441    -0.0486575    -0.0100981    -0.0013953    0.00924993   -0.00804512   0.000407583  -0.000341398  -0.000349106  -0.000591794
  -0.00837349    0.00395996    0.00310775     -0.050383   -0.00468832   -0.00466005     0.0107122   -0.00957947   0.000116866   0.000168483  -0.000311493   5.5404e-005
  -0.00854328   -0.00782675   0.000752101    -0.0483328   -0.00540945   -0.00354762    0.00916985    -0.0102019     0.0004342  3.43074e-005   0.000484656    0.00018175
  -0.00709268    -0.0152465    0.00811116    -0.0525259  -0.000479328   -0.00587944     0.0117674     -0.011556  -0.000401467   0.000735414  -0.000227652   -0.00010748
   -0.0101171    -0.0151573     0.0134614    -0.0557789   -0.00849517   -0.00236185     0.0139412   -0.00948927  -0.000327145   0.000141299   0.000565151  5.65401e-005
  -0.00843985   -0.00951648     0.0116694    -0.0468835    0.00106912   0.000272795     0.0109598   -0.00965384  6.02339e-005   0.000492429  -1.2327e-005  -0.000240458
  -0.00869429   -0.00820035     0.0169961    -0.0470233    0.00659861   -0.00173986      0.010719   -0.00829726  -0.000192504  2.34065e-005  7.68774e-006   -0.00020199
   -0.0152604    -0.0151878     0.0211724    -0.0495207    0.00272674   -0.00200219     0.0122537   -0.00658003    0.00025828  5.71218e-005   -0.00089512  -0.000203708
   -0.0207831    -0.0201681     0.0210486    -0.0563225   -0.00180951   -0.00123038     0.0141757   -0.00566269   0.000377211   0.000646835  -0.000350725  1.69296e-005
  -0.00891921     -0.019148    0.00743958    -0.0500223    -0.0010058   0.000746462     0.0120632   -0.00571505   7.0166e-005    0.00049715 -2.09486e-005  -0.000237144
   0.00207032    -0.0197225   -0.00186163    -0.0407412    0.00943351    0.00017973     0.0107527   -0.00777197  6.23501e-005   0.000492139 -3.61986e-006   -0.00023551
    0.0071666    -0.0290072   -0.00598102    -0.0424046     0.0125152     0.0016682     0.0113346   -0.00690183  -0.000244377   0.000347332      0.000313   -0.00048884
    0.0120333    -0.0249806    -0.0184468    -0.0375123    0.00933135    0.00473708     0.0100519    -0.0048485   0.000699104   0.000513576    0.00046736   0.000152611
    0.0222678    -0.0264042    -0.0378858     -0.034306     0.0129917    0.00957014    0.00901622   -0.00548364 -3.16345e-005  -0.000365792    0.00055434  -0.000573601
    0.0392137    -0.0393048    -0.0592337    -0.0324074     0.0196759    0.00836105    0.00946457   -0.00612634  -4.3026e-005 -8.73543e-005  -0.000550297  -0.000435498
    0.0387463    -0.0564065    -0.0651052    -0.0385352     0.0133279    0.00386224     0.0133068   -0.00239148   0.000534892   0.000253059   0.000213298  -0.000345409
    0.0336136    -0.0640027    -0.0688861    -0.0447543    0.00665175    0.00339005     0.0148193  3.72193e-005    0.00054259   0.000256349   0.000202174  -0.000343077
    0.0373135    -0.0753308    -0.0794849    -0.0469787    0.00535091    0.00129745     0.0155064    0.00140648   0.000293536  -0.000213204    0.00021868  -0.000300208
    0.0471481    -0.0864473    -0.0854504    -0.0484587    0.00750419   0.000834082     0.0145857   0.000509896   0.000371892 -8.91828e-006 -4.88751e-005  -0.000851097
    0.0514305    -0.0986038     -0.080905    -0.0513884     0.0140486  -0.000801079     0.0169886   -0.00159768  -0.000149204  -0.000667877   -0.00113009  -0.000641306
    0.0561835     -0.111534    -0.0817253    -0.0535848       0.01537   -0.00203012     0.0169817  -0.000909468   0.000137578   0.000181988  -0.000319547  9.41158e-005
    0.0712086     -0.102818    -0.0956372    -0.0417064     0.0150569    0.00316571     0.0129983   -0.00297193 -3.42498e-005 -8.58036e-005  -0.000558252  -0.000419905
    0.0823918     -0.115591      -0.10634     -0.036933     0.0112393    0.00852829     0.0120369   -0.00128341   0.000407101   0.000370934   0.000789128 -7.17779e-005
    0.0818296     -0.124275     -0.106967     -0.045092     0.0132952    0.00486151     0.0132979  -0.000410947   0.000715211   0.000520707   0.000464432   0.000187502
    0.0856465     -0.132932     -0.107642    -0.0483191     0.0164257  -0.000348772      0.014321   -0.00160063  -0.000478754  -0.000116754   0.000333127  -0.000411669
    0.0899066     -0.140654     -0.113568    -0.0495464     0.0172267   0.000890715     0.0144686    -0.0004188  -0.000281158   -0.00055164   -0.00054682  -0.000370886
    0.0896746     -0.135101     -0.115505    -0.0524349     0.0200141   -0.00192745      0.017786 -1.84648e-005  -0.000396161  9.33428e-005  5.48559e-005  -0.000960883
    0.0938347      -0.13761     -0.120642    -0.0513248     0.0115669    0.00385578     0.0178601   0.000801199  -0.000330965  -0.000223762  -0.000257525   -0.00066409
    0.0971834     -0.132291     -0.128543    -0.0430037     0.0202063    0.00409451     0.0152524   -0.00117445   -0.00016615  3.50917e-005  1.40452e-005  -0.000148726
    0.0990106     -0.137823     -0.132785    -0.0415708     0.0286339  1.36516e-005     0.0169097   -0.00403344 -4.00219e-005  -8.5666e-005  -0.000551867  -0.000405391
    0.0886897     -0.142184     -0.129842    -0.0502058     0.0142346    0.00367789     0.0195462  -0.000761415  -0.000586911  -0.000694863  -0.000239464  -0.000622462
    0.0978713     -0.155731     -0.132443    -0.0537535     0.0193156    0.00183216     0.0207691  -0.000546002 -1.91968e-005   -0.00035515   0.000534483  -0.000532453
     0.106252     -0.151338     -0.136232     -0.048024     0.0246875    0.00642694     0.0186827   -0.00142381  8.60676e-005   0.000510845 -1.47306e-005  -0.000181541
    0.0993504      -0.14073     -0.133297    -0.0478105     0.0183129      0.008843      0.017895 -3.55104e-005  -0.000583389  -0.000690243  -0.000239074  -0.000620202
     0.103726     -0.158495     -0.132789    -0.0534429     0.0194028    0.00520683     0.0206639  -0.000955836   0.000290789  -0.000204253   0.000210817  -0.000274942
     0.103679     -0.165638     -0.137024    -0.0539258     0.0242414     0.0025739     0.0220331   -0.00158102  -0.000533903    0.00021467   0.000618451  -0.000692928
     0.103651     -0.165531     -0.136719    -0.0527972     0.0274793  3.15482e-005      0.021586   -0.00202332  -0.000228688   0.000359845    0.00030464  -0.000436721
    0.0966043     -0.162398      -0.13147    -0.0583049     0.0149994     0.0039401      0.021217  -0.000656696 -1.66454e-005  -0.000352349   0.000525602  -0.000531597
    0.0910666     -0.161699     -0.137909    -0.0567411     0.0113392    0.00285813     0.0226643   0.000629083  -0.000158943  4.24149e-005 -1.45409e-005  -0.000141879
     0.098406     -0.161103     -0.144489    -0.0505357     0.0162679  -0.000650806     0.0216342   0.000105087  -0.000609638   4.7991e-006   0.000894427  -0.000140215
    0.0969802     -0.162678     -0.144951    -0.0500712     0.0139725    0.00173264     0.0203803    0.00115622  -0.000467748  -0.000110138   0.000318756  -0.000397933
    0.0988266     -0.170824     -0.149049     -0.048858     0.0212325    -0.0006016     0.0196967   0.000344029   0.000477466   0.000857247  -0.000600947  -0.000475357
    0.0988551     -0.167426     -0.149464    -0.0525032     0.0197824    0.00167014     0.0206963   0.000183986  8.95351e-005   0.000508259 -1.76678e-005  -0.000177321
    0.0986239     -0.170513     -0.148205    -0.0530467     0.0123977    0.00611627     0.0214565    0.00158478  -0.000291866   0.000159551   0.000562062   0.000119626
     0.104337     -0.175159     -0.152877    -0.0521682      0.022704   0.000413171     0.0215311  -0.000956999  2.89333e-005   0.000828204   0.000287694  -0.000471492
     0.104136     -0.170248     -0.159683    -0.0491871     0.0197556    0.00295082     0.0212489    0.00152027   9.3925e-005   0.000509468 -1.72502e-005  -0.000174459
    0.0945574     -0.176981     -0.155066     -0.055716     0.0110183     0.0025608     0.0255093    0.00176349  -0.000211926    0.00036452   0.000285144  -0.000431705
    0.0930448     -0.166979     -0.155604    -0.0556493     0.0183659    0.00377835     0.0204529    0.00171055   0.000241185   0.000116025   0.000515742  -0.000563413
    0.0919167     -0.160965     -0.158713    -0.0555241     0.0173936    0.00141294     0.0230502    0.00269339  -0.000464694  -0.000105101   0.000311713  -0.000391857
    0.0925226     -0.167738     -0.155068    -0.0590759     0.0182238   -0.00285849     0.0240474    0.00242718  9.27318e-005   0.000510553 -2.54417e-005  -0.000174595
     0.100463     -0.160016     -0.154552    -0.0491839     0.0133347    0.00652241     0.0180606    0.00355763  -0.000913633   0.000141622  9.97921e-005  -0.000262183
     0.103416     -0.166104     -0.155115     -0.051751     0.0193413    0.00441547     0.0211571    0.00365076  9.92385e-005   0.000514024 -2.32392e-005  -0.000174563
     0.113422     -0.169268      -0.16101     -0.048446      0.026853    0.00359002     0.0197484    0.00220239  9.35013e-005   0.000511307 -1.20904e-005  -0.000172723
     0.111384     -0.168306     -0.160424    -0.0529648     0.0212705    0.00366958     0.0208324    0.00265198   0.000242569   0.000118138    0.00051824   -0.00056159
     0.106736     -0.159917       -0.1576     -0.051986     0.0177247    0.00734755     0.0181643    0.00377544  4.53982e-005   0.000836454   0.000282411  -0.000469801
     0.114094     -0.150941      -0.16242    -0.0427749     0.0167982     0.0128826     0.0159567    0.00285926  4.72081e-005   0.000836003    0.00028876  -0.000470662
     0.110818     -0.160946     -0.158937    -0.0518711     0.0170597    0.00459385     0.0225308     0.0027246   9.8424e-005   0.000515329 -2.57141e-005  -0.000174188
     0.117868     -0.173548     -0.162787     -0.051603     0.0254205   0.000745917     0.0201952    0.00153359  9.11262e-005   0.000509946 -1.17134e-005  -0.000172139
     0.136486     -0.172631     -0.178168    -0.0346916     0.0405986     0.0047941     0.0140708   -0.00173833   8.2207e-005   0.000502363  1.95779e-005  -0.000169686
     0.117315     -0.166655     -0.162894    -0.0518018     0.0246091     0.0030053     0.0200745  -0.000642074  -0.000619059   0.000288473  -0.000214064 -1.49676e-006
      0.11125     -0.170915     -0.155792    -0.0609011     0.0142678    0.00254659     0.0249776    0.00186831  -0.000155857  4.82287e-005 -1.93979e-005  -0.000134161
     0.122364     -0.171451     -0.165924     -0.047604     0.0137604     0.0105371     0.0204509    0.00293496  -0.000124025   0.000573982  2.32844e-005   -0.00098238
     0.110087      -0.17321     -0.164112    -0.0548035    0.00827357    0.00660083     0.0219304    0.00168616   0.000100942   0.000514498 -3.09594e-005   -0.00017294
     0.112901     -0.177732     -0.162771    -0.0542242     0.0169929    0.00162198     0.0213203   0.000268393  -0.000216991   0.000361377   0.000300898  -0.000429589
     0.106555     -0.173898     -0.157528    -0.0557819    0.00944181    0.00316621     0.0227706    0.00183452 -9.71791e-005  -0.000278016  -0.000316108   0.000159799
     0.104038      -0.17865     -0.156926    -0.0586256    0.00680089    0.00350671     0.0222417    0.00427307  -0.000739709   0.000409047    0.00033838   0.000255342
     0.105136     -0.169807      -0.16034    -0.0542418     0.0107641    0.00274195     0.0203674    0.00266461  -0.000265913   0.000683963   0.000600553  -0.000726893
      0.10224     -0.156813     -0.165385    -0.0493375    0.00690954    0.00411575     0.0197171    0.00314167   0.000102991   0.000509782 -1.97166e-005  -0.000175648
     0.105848     -0.164496     -0.167895    -0.0478076     0.0138692    0.00292213     0.0178494    0.00186744  -0.000357549   0.000753678  -0.000227874  -4.2036e-005
     0.106124      -0.16497     -0.165061    -0.0461952     0.0120211    0.00175345     0.0185865     0.0025074  9.84299e-005   0.000505436  -1.0043e-005   -0.00017575
     0.111149      -0.16861     -0.164777    -0.0492133     0.0139345    0.00161979      0.020071       0.00288    0.00015524   0.000187387  -0.000318268   0.000121426
     0.118167     -0.173497      -0.16239    -0.0524044     0.0190286     0.0030037     0.0187267    0.00155753  -0.000385559  9.80133e-005  5.19601e-005  -0.000944229
     0.119096     -0.164805     -0.163417     -0.047459     0.0138489     0.0061963     0.0177202    0.00160545  -0.000493799   0.000873834   0.000342159    0.00021549
     0.109762     -0.169541     -0.156961    -0.0564348     0.0149185    0.00158703     0.0199263    0.00338504 -7.25975e-005   0.000248136  -0.000275704  -0.000688896
     0.110285     -0.173719       -0.1546    -0.0610902      0.012848    0.00468282     0.0221655     0.0046913   0.000104153    0.00051939 -3.62163e-005  -0.000172677
     0.119888       -0.1641     -0.161447    -0.0479844     0.0119817     0.0108684     0.0194826    0.00435168  -0.000201187   0.000370044   0.000293488  -0.000430333
     0.123101     -0.161757     -0.165129    -0.0426271     0.0167226    0.00968295     0.0160003    0.00272446   0.000102035   0.000511879 -1.01414e-005  -0.000174237
     0.115401     -0.157289     -0.165197     -0.045682     0.0148473    0.00727586     0.0186586    0.00292036   0.000101636   0.000512516 -1.57672e-005   -0.00017438
     0.117628     -0.158376     -0.162516    -0.0451523     0.0194307    0.00552683     0.0180597    0.00180708    -0.0002931   0.000157009   0.000581257   0.000122014
     0.132154     -0.166839     -0.167609    -0.0372479     0.0294496    0.00580296     0.0163609   -0.00117603  -0.000539382   0.000488542  -0.000466644  -0.000556181
     0.130959     -0.161019     -0.165719    -0.0340368     0.0258436    0.00851834     0.0138533  -0.000274404 -7.98515e-005    0.00024085  -0.000245963  -0.000690249
     0.127035     -0.166288     -0.166045    -0.0400002     0.0215939    0.00790753     0.0140511   0.000366792  -0.000329341   -0.00022719  -0.000235174  -0.000650213
     0.132885     -0.175545     -0.166214    -0.0463977     0.0259314    0.00640711     0.0176005  2.24589e-005  -0.000787233   2.4648e-005  -0.000462615  -0.000514918
     0.136806     -0.166775     -0.169925    -0.0413037     0.0265671     0.0079469     0.0169473  -0.000241815  -0.000672155   0.000609658  9.91926e-005  -0.000296315
     0.130175     -0.166662     -0.166914    -0.0423428     0.0281644    0.00785743     0.0140708   -0.00077395 -8.18006e-005   0.000243459  -0.000250791   -0.00068742
     0.119046     -0.163241     -0.159977    -0.0534193     0.0218478    0.00839031     0.0189747  -0.000412259  -0.000135651   0.000572416  2.91908e-005  -0.000983089
     0.113611     -0.158035     -0.154724    -0.0532818     0.0111961     0.0121329     0.0208746     0.0029452  -0.000341051   0.000489332   0.000858856  -0.000173433
     0.111179     -0.162774      -0.14704    -0.0525148     0.0150163    0.00884398     0.0203314    0.00298981 -3.59825e-005   0.000633997   0.000544302  8.12111e-005
     0.117553     -0.156301      -0.16802    -0.0522964     0.0216035    0.00975339     0.0203882    0.00184918   0.000634412    0.00047687  -7.6725e-005  -0.000856288
     0.116271     -0.153414     -0.167781    -0.0449354     0.0216241     0.0149387     0.0185291    0.00285248    0.00055877   0.000272456   0.000196719  -0.000303546
     0.117682     -0.152355     -0.159531     -0.039835     0.0286314     0.0102063     0.0167068    0.00223608  3.98893e-005   0.000834434   0.000296741  -0.000470412
     0.119282     -0.154819     -0.162582    -0.0427975     0.0287693     0.0101459     0.0163696      0.002621  4.09828e-005   0.000835701   0.000295465  -0.000468635
     0.118853     -0.159788     -0.160098    -0.0457759     0.0244603     0.0117526     0.0173628    0.00320742   0.000247333   0.000121847   0.000521933  -0.000561779
     0.117342     -0.156828     -0.166343    -0.0457465     0.0189341     0.0104213     0.0196671    0.00373261   0.000184594   0.000722637  -0.000291946  -0.000725963
     0.112276     -0.156428     -0.167751     -0.046344     0.0170891    0.00981519      0.020461    0.00504405   0.000415935    0.00066619  -0.000343877  8.46972e-005
     0.119311     -0.158393     -0.165946    -0.0433869     0.0254691    0.00964026     0.0177742    0.00270949   0.000179632   0.000719646  -0.000282243   -0.00072592
     0.120318     -0.153726     -0.161558    -0.0458102     0.0309527    0.00592323     0.0167417    0.00211989   0.000548245   0.000265127   0.000213836  -0.000305409
     0.125486      -0.11849     -0.164232    -0.0358178     0.0208824     0.0161721      0.016033    0.00413298  -0.000210484   0.000651568  -0.000803887   -0.00030194
     0.140288    -0.0953804     -0.152586    -0.0299711     0.0216885     0.0239063     0.0143665    0.00391406   0.000166572   0.000205838  -0.000316936   0.000115247
     0.164309    -0.0807054     -0.140043    -0.0321222      0.032521     0.0232033     0.0130491    0.00300697 -9.24894e-005  -0.000258863  -0.000295024    0.00015239
     0.196461    -0.0399851     -0.146065    -0.0146189     0.0274685     0.0340037    0.00840728   0.000870575   0.000927124   0.000113783  -0.000401837   0.000233442
     0.233347    -0.0101878     -0.141073   -0.00560495     0.0326694      0.036542     0.0072628  -0.000666997   0.000102594   0.000538202  1.25402e-005  -0.000190328
     0.273226     0.0420239     -0.133318  -0.000781947     0.0387318     0.0420893    0.00608155   -0.00086867  -0.000913213    0.00018008    0.00013357  -0.000279386
     0.311942      0.113766     -0.129745     0.0169385      0.025908       0.06225   -0.00157189   -0.00174374   0.000400055  5.05868e-005 -1.81963e-005  -0.000849174
     0.354191      0.185903     -0.120032     0.0362368     0.0181456     0.0786031   -0.00883324   -0.00279305  -0.000435376 -4.56027e-005   0.000363562  -0.000430004
     0.390704      0.271285     -0.111184     0.0467947     0.0172232     0.0905727    -0.0144494   -0.00481807  -0.000124421   0.000114071  5.11376e-005  -0.000181707
     0.435767      0.325554      -0.10212     0.0504129     0.0216334     0.0958314    -0.0161124   -0.00697878  -0.000583095   0.000372304  -0.000163894 -5.41525e-005
     0.471335      0.375873     -0.110976     0.0549751    0.00965954      0.110584    -0.0156191   -0.00617284  -0.000372408    0.00118128   0.000104745  -0.000388947
     0.497778      0.431567     -0.130943     0.0572809   -0.00784377      0.124644    -0.0188248   -0.00606343   0.000212015   0.000304972  -0.000292857   7.1196e-005
     0.532549      0.482661     -0.145489     0.0585491    -0.0229758      0.127199    -0.0162862   -0.00407764  -0.000230799   0.000563621  -0.000521105   0.000202997
     0.549173      0.532002     -0.174606     0.0664526    -0.0311275      0.135203    -0.0153631   -0.00277711  6.49594e-005  6.12273e-005  -0.000559693   -0.00044017
     0.544898      0.581977     -0.199738     0.0712412    -0.0337461      0.145814    -0.0147945   -0.00355833   0.000324196   0.000539914  -0.000581896  -0.000475125
     0.537967      0.653776     -0.238033     0.0682564    -0.0430883      0.155731     -0.013602   -0.00191815  -0.000252744   0.000918444   -0.00023868 -7.74953e-005
     0.528019      0.716114     -0.302897      0.051518    -0.0541486      0.163669    -0.0170823   -0.00220476   0.000555473  -0.000149839  -0.000364771  -0.000544471
     0.474066      0.781998     -0.343591     0.0254534     -0.073235      0.165012    -0.0152273   -0.00055911  -0.000420897   0.000150834   -0.00055457   0.000283346
     0.386041      0.837937     -0.356993     0.0113084     -0.085256      0.163262    -0.0160335   -0.00277413  -0.000275827  -0.000250148 -2.13824e-005  -0.000106618
     0.268341      0.850152     -0.388453   -0.00862497    -0.0991697      0.148619    -0.0115961   -0.00308782  -0.000481077   0.000450078  -0.000262102 -7.92966e-006
     0.117722      0.870486     -0.434877    -0.0430068      -0.11667      0.131913     -0.006413   -0.00124815  -0.000274839  -0.000280401 -4.21688e-005 -8.97693e-005
   -0.0316605      0.927057     -0.428781    -0.0659277     -0.127304      0.117488    -0.0112077    -0.0037507   0.000477736  -0.000401708  -0.000134501  2.65877e-005
    -0.187748      0.992731     -0.396251    -0.0755078     -0.120459     0.0996312    -0.0186771   -0.00676313   0.000389549   0.000168916  -0.000912152  -0.000154951
    -0.335082       1.02733     -0.391752     -0.081832       -0.1264       0.08458    -0.0210949   -0.00669844  -0.000210654   0.000505366  -0.000539107   0.000226783
    -0.487325       1.04485     -0.415283    -0.0956072     -0.152522     0.0693349    -0.0120202    -0.0018672  -0.000109884   0.000413951    0.00028352  -0.000457364
    -0.672775       1.04979     -0.455395     -0.114618     -0.160806     0.0503203   -0.00963011   0.000546065   0.000311468  -0.000108633  -0.000636752   0.000398101
    -0.865295       1.06282     -0.465844     -0.123026     -0.173845     0.0260893   -0.00524752    0.00339037    0.00011337   0.000293354   0.000250362    0.00035529
     -1.11099       1.08875     -0.428904     -0.110677     -0.163706     0.0152016   -0.00761254    0.00689293   0.000243505   0.000139052  -0.000300828  7.93529e-005
     -1.37711       1.07249     -0.358615     -0.074324     -0.136171     0.0140202    -0.0163825    0.00933103   0.000433417  -0.000626663 -2.31088e-005 -4.00377e-005
     -1.61782       1.01092     -0.161702    0.00474363    -0.0935765    0.00859705    -0.0243875     0.0129982   0.000145419    0.00034663   0.000104317   -0.00030718
     -1.87336      0.925298     0.0807046     0.0969042      -0.03138     0.0191831    -0.0307528     0.0136386  8.50609e-005  -0.000237809   0.000118633   0.000469571
     -2.12732      0.868076      0.238639      0.181573     0.0179488     0.0285266    -0.0285408     0.0172924   0.000146052 -8.13916e-005  -0.000119601  -0.000134808
     -2.37379       0.76891      0.381863      0.260721      0.086413     0.0425404    -0.0345272     0.0165336   0.000260747  -0.000529579   0.000470026  -0.000564056
     -2.60736      0.637334      0.411589      0.300661      0.137367      0.042346    -0.0231071     0.0170582  9.33053e-005  -0.000174721 -5.52389e-005  -0.000177488
     -2.77565      0.454198      0.239843      0.325398      0.122639     0.0330319     0.0176126     0.0311683   0.000395438 -5.56821e-006   0.000991348  -0.000295408
     -2.94335      0.229117     0.0143968      0.335786     0.0951064     0.0274426     0.0583724      0.046221  1.77003e-005  -0.000477152   -0.00042027  -0.000569183
     -3.11448     0.0560066     -0.200558      0.322551     0.0935023     0.0250876     0.0893728     0.0531953  1.63616e-005    0.00049381  -0.000450251   0.000111682
     -3.20907     -0.143787     -0.374196      0.310279      0.100707     0.0402895      0.119945     0.0560875  -0.000347323   0.000150692  7.02832e-005   0.000477276
     -3.31644     -0.298185       -0.4287      0.306073      0.119107     0.0564826      0.145374     0.0523164    0.00035833   0.000378345    0.00020659   0.000337834
     -3.39636     -0.425083     -0.475177      0.309051       0.13567     0.0648841      0.162019     0.0445133 -2.32488e-005  -0.000685011  -0.000362272    0.00018059
      -3.4596     -0.531567     -0.499195      0.307497      0.162987     0.0871008      0.172235     0.0286421 -2.89873e-006   0.000500911  -0.000644124   0.000253759
     -3.45145     -0.627405     -0.541894      0.300006      0.158693      0.107635      0.188295     0.0119792   0.000261627 -1.71178e-006  -0.000730475   -0.00037318
     -3.32565     -0.801227     -0.624532      0.262281      0.119214      0.102514      0.204591  -0.000529333   -0.00052536  -0.000702642    0.00039914    0.00025453
     -3.15941     -0.960471     -0.613169      0.242604      0.105764     0.0974552      0.207767    -0.0144405  8.91582e-005    0.00011948  -0.000225948 -7.44025e-005
     -2.89729      -1.14879     -0.524127      0.263936     0.0818594     0.0842327      0.207331    -0.0226738 -7.92933e-005   0.000501344  -0.000753799   0.000291655
     -2.63159      -1.34311     -0.388623      0.282744     0.0673797     0.0746251      0.207222    -0.0288616  -0.000264608 -4.69918e-005   0.000101921  -0.000385098
     -2.29786      -1.46254     -0.220334      0.301108      0.050418     0.0618234      0.201655    -0.0435555   0.000228186  4.08731e-005    -0.0002525   0.000634564
     -1.91851      -1.59115    -0.0894159      0.323116    0.00785473     0.0435011      0.192489    -0.0525719   0.000522659 -9.78724e-005   0.000565552   0.000718599
     -1.60677      -1.73173     0.0147238      0.334826    -0.0257496     0.0253257      0.179104    -0.0517357  -0.000561404   0.000126752 -9.88274e-005   0.000439897
     -1.26188       -1.8233      0.148911      0.324811     -0.034614    0.00120727      0.153325    -0.0557901 -5.25714e-005  8.24655e-005 -9.93997e-005  -0.000279104
    -0.924924      -1.84698      0.267556      0.326929    -0.0337635    -0.0168813      0.131105    -0.0553363  -0.000604521   0.000134718  4.56777e-006   0.000375353
    -0.573342      -1.87719      0.346472      0.310024    -0.0641275    -0.0308086      0.104878    -0.0492878  -5.6078e-005   0.000112002 -1.63759e-005  -0.000330151
    -0.161014      -1.94088      0.417979      0.246934     -0.112166     -0.066326     0.0698238    -0.0430597  -0.000525849  -0.000149731  -0.000230395   0.000639152
     0.194739      -1.98523      0.462373      0.188866     -0.140856     -0.103877      0.039947    -0.0361875   -0.00012357 -6.16195e-005   0.000334104   0.000206953
      0.43494      -2.01682      0.431837      0.149502     -0.168673     -0.117413     0.0229301    -0.0220412 -2.90856e-005  -0.000355815  3.87134e-005   0.000519699
     0.551033      -1.99943       0.36595      0.120974     -0.193987     -0.107975     0.0193712    -0.0104169   0.000609348   -0.00068123  -0.000348396   0.000154509
     0.592643      -1.92616      0.315078      0.102689     -0.179414     -0.080073     0.0144358   -0.00874563   0.000515613  2.98705e-006   0.000234448   -0.00041421
     0.619869      -1.87089      0.262468     0.0905064     -0.147488     -0.063916    0.00926289   -0.00649513  -0.000126916  -0.000511994  -0.000268258   7.6087e-005
     0.643988      -1.83514      0.196167     0.0665075     -0.127628    -0.0579677    0.00689387   -0.00138927   0.000219479    0.00018769   -0.00056154  -0.000488824
     0.654672      -1.79793      0.117715     0.0479292     -0.116397    -0.0422166   0.000535025      0.002486    0.00050084   0.000401687   0.000529334  -0.000629713
     0.658088      -1.76829     0.0398972     0.0344535     -0.100717    -0.0274914   -0.00362638    0.00396034  9.14638e-005  -0.000179061 -2.54717e-005   0.000675679
     0.653309      -1.73975    -0.0142699     0.0111201     -0.092242    -0.0188103   -0.00681913    0.00884776   0.000270363    0.00025238  -0.000579996  -0.000409019
     0.647543       -1.7168    -0.0472687   -0.00154935     -0.067352    -0.0142596   -0.00857369     0.0109655  -0.000124969     0.0014204  6.35704e-005  -0.000337049
     0.648901      -1.66395    -0.0527249   -0.00684996    -0.0273787   -0.00287228   -0.00442397     0.0117095  -0.000375076    -0.0005305  1.86628e-005 -4.66661e-005
     0.645093      -1.61136    -0.0453449   -0.00803965     0.0107412    0.00515725   -0.00214247     0.0134857   -0.00020903   -0.00024601   0.000268986    0.00047254
     0.635866      -1.57182    -0.0388672    -0.0104826     0.0447274    0.00575121  -0.000386277     0.0125662  -0.000425888   0.000480151  3.97515e-005    0.00056856
     0.621006      -1.52335    -0.0344749    -0.0130189     0.0675295    0.00947822  4.17394e-005      0.013445   0.000162045   0.000127733  -0.000315614   0.000179873
     0.598874      -1.48021    -0.0368561    -0.0244902      0.085862    0.00765981    0.00454657     0.0169341   0.000162237   0.000141219  -0.000326233   0.000184765
     0.579171      -1.41954    -0.0431724    -0.0251053      0.104237     0.0119559    0.00452828     0.0160038  -0.000663888   0.000570188  8.30762e-005  -0.000233315
     0.556646      -1.34008    -0.0443466     -0.018146      0.110551     0.0188047    0.00165027     0.0145978   0.000609833 -9.34187e-005 -9.46367e-005  4.98395e-005
     0.525021      -1.26351    -0.0497386    -0.0234392      0.107486     0.0191239    0.00311194     0.0147838    0.00114712  -0.000129569  -0.000152605  -0.000638773
      0.49996      -1.18355     -0.066248    -0.0216386      0.106312     0.0238572   0.000151937     0.0161787   0.000106976   0.000486916 -9.20718e-006  -0.000116688
      0.48272      -1.11258    -0.0751143    -0.0184667      0.113154     0.0295185   0.000367084     0.0169611  -0.000313773  -0.000237701  -0.000245509   -0.00059261
     0.456937      -1.04721    -0.0724311    -0.0234246      0.125229     0.0246506   0.000364286     0.0140092 -1.88641e-005 -8.97519e-005  -0.000555319  -0.000339356
     0.413132     -0.957176    -0.0562271     -0.029397      0.115229     0.0219609    0.00113873     0.0144238  9.69632e-005   0.000498765 -4.57816e-006  -0.000131617
     0.375472     -0.883298    -0.0589931     -0.037894       0.10849     0.0170252    0.00101824     0.0125521  -0.000274705  -0.000557364  -0.000542575  -0.000316675
     0.332216     -0.797202    -0.0903974    -0.0430899     0.0897683     0.0160131    0.00399088     0.0117151  -0.000528187   0.000482299  -0.000481367  -0.000518872
     0.285866     -0.691021     -0.108925    -0.0511609     0.0637282     0.0176891     0.0096521     0.0116372   0.000108852   0.000507686 -3.15222e-005  -0.000140668
     0.254891     -0.592086     -0.127107    -0.0522715     0.0467899     0.0169913     0.0105324     0.0121123   -0.00053423  -3.2661e-005   -0.00053737   0.000321815
     0.223328     -0.504529     -0.136485    -0.0534661     0.0362599     0.0142166      0.011564    0.00883202 -3.51498e-006  -7.6836e-005  -0.000586277  -0.000370355
     0.193464     -0.433714     -0.142204    -0.0602029     0.0269896     0.0129176    0.00932903    0.00965549   0.000570652   0.000263309   0.000189937  -0.000287248
     0.172509     -0.368117     -0.161969    -0.0583136     0.0045396     0.0186576     0.0110174      0.010906   0.000333414  -0.000200273   0.000194696  -0.000250216
     0.164116     -0.334001       -0.1677    -0.0594818   -0.00024647     0.0205979     0.0113863    0.00948406   0.000130661   0.000518873 -4.32318e-005  -0.000158153
     0.157474     -0.298397     -0.174119    -0.0596857     0.0018512     0.0204179     0.0104342    0.00832281   0.000582593   0.000272037   0.000181092  -0.000290955
     0.145572     -0.261611      -0.17398    -0.0583663    0.00464432     0.0200706    0.00960468    0.00659683   0.000259885   0.000402508   -0.00060469   -0.00041954
     0.138762     -0.238403     -0.167189    -0.0587972    0.00875636     0.0207154    0.00935869    0.00637794  5.57052e-006 -6.45076e-005  -0.000587032  -0.000382951
     0.133527     -0.199544     -0.166303    -0.0533898    0.00687824     0.0228988    0.00804495    0.00586838    0.00025821   0.000405408  -0.000598981  -0.000426089
      0.12113     -0.170165     -0.153834    -0.0548002    0.00890861      0.021161    0.00791262    0.00498755  -0.000338826   0.000769003  -0.000241551 -4.10162e-005
     0.110478     -0.150534     -0.150271     -0.055996     0.0135971     0.0189256    0.00625556    0.00344334  -0.000532209  -0.000303814   0.000593309   0.000160524
     0.101325     -0.127508     -0.150468    -0.0543267     0.0185154     0.0166899    0.00311757    0.00306346   0.000308297   -0.00020172   0.000233931  -0.000270596
    0.0977193     -0.117019     -0.149642    -0.0524675     0.0200104     0.0158648     0.0032032    0.00154747  -0.000858173  -0.000178315  -0.000181472  3.12976e-005
     0.100414     -0.114225     -0.149609    -0.0579125     0.0176956     0.0143608    0.00418729    0.00181995  -0.000150462  4.60014e-005  1.44776e-005  -0.000139357
    0.0929739     -0.105077     -0.153725    -0.0595606     0.0104858     0.0141855    0.00510353    0.00260375  -0.000707117  -0.000570781   0.000346731  -0.000357259
    0.0894482    -0.0979673      -0.15475    -0.0612933    0.00725548     0.0121033    0.00582963    0.00120203  -0.000320683  -0.000219491   -0.00024441  -0.000655365
    0.0927116     -0.105307      -0.15139    -0.0669839      0.023912    0.00371798    0.00695418   0.000317234  -0.000357409  -0.000748304  -0.000267213   0.000196163
    0.0976884    -0.0934014     -0.165371    -0.0533247     0.0193946     0.0127442    0.00217233  -0.000337049  -0.000407774  -0.000428992   4.7026e-005 -9.93347e-005
    0.0970954    -0.0750592     -0.173487     -0.046285     0.0120866     0.0188224     -0.001876   0.000313767  -0.000602536    0.00028769   -0.00018292 -7.09125e-006
    0.0966092    -0.0833295     -0.178153    -0.0494386     0.0196016     0.0136947  -0.000368472   0.000271233  9.92584e-005   0.000507841  2.22233e-005  -0.000175345
     0.094312    -0.0874841     -0.177305    -0.0556786     0.0168177     0.0104259    0.00154943   -0.00136973  9.47931e-005   0.000506849  1.74379e-005  -0.000175271
    0.0834812    -0.0752454     -0.170672    -0.0643401    0.00985418    0.00994367    0.00427358    0.00100132  -0.000402743   -0.00042535  3.48678e-005 -9.83773e-005
    0.0893089    -0.0722196     -0.169636    -0.0588045     0.0187212     0.0123099 -2.29496e-005    0.00143729  -0.000460238  -0.000105102   0.000351065  -0.000393925
     0.091807    -0.0595395     -0.172657    -0.0515551     0.0303728      0.011667   -0.00217703  -0.000808491  -0.000297966   0.000154692   0.000622599   0.000120293
    0.0784594    -0.0509157     -0.167471    -0.0600624     0.0153733     0.0170421  -0.000386748  -0.000236633  -0.000662943    0.00061478   0.000109996  -0.000302525
    0.0752814     -0.060261     -0.160295    -0.0719863    0.00912042     0.0110591    0.00674214    0.00113014    0.00024808   0.000124755   0.000525067  -0.000566865
    0.0757597    -0.0380743     -0.163832    -0.0644326     0.0125128      0.011961    0.00705792    0.00162169 -3.67353e-006  -0.000344273   0.000548306   -0.00052908
    0.0840972    -0.0278294     -0.165476     -0.055883     0.0131605     0.0197484    0.00196157    0.00132405  -0.000145977   5.2018e-005  1.85341e-005  -0.000141186
    0.0857133    -0.0363057     -0.162415     -0.061341     0.0177515     0.0165049    0.00292277    0.00182102 -2.39569e-006  -0.000342516   0.000555268  -0.000528642
    0.0846197    -0.0352832     -0.162896    -0.0615798     0.0176405     0.0160281     0.0011036   0.000435111 -5.55597e-006  -0.000345425   0.000560678  -0.000529213
    0.0915512    -0.0307475     -0.164676    -0.0566728     0.0259118     0.0171725  -0.000599645  -0.000741107   0.000607469 -5.03938e-005 -6.95955e-005 -1.54983e-005
    0.0788366    -0.0332765     -0.158517    -0.0696704     0.0191602     0.0119726    0.00344242   0.000225125  -0.000211927   0.000372936   0.000319164  -0.000435737
     0.067923    -0.0250289     -0.158139    -0.0735822    0.00782076     0.0124439    0.00435701    0.00346683  -0.000452923 -9.29515e-005   0.000324604  -0.000397656
    0.0730916   -0.00891747     -0.160263    -0.0599346     0.0144437     0.0165393  -0.000490889     0.0010934   0.000362413  -0.000518943 -5.97813e-005  1.97026e-005
    0.0719034   -0.00592331      -0.15811    -0.0598159     0.0158374     0.0143284    0.00104222    0.00210847  -0.000263811  -0.000535304  -0.000533001   -0.00036324
    0.0651922   -0.00775022     -0.156017    -0.0689505     0.0121686     0.0116251    0.00259339    0.00320765  -0.000399118  -0.000416692  3.17258e-005  -0.000104394
    0.0659818    -0.0152781     -0.155822    -0.0668415     0.0207641    0.00974194    0.00238107  -0.000276962   0.000296308  -0.000199844   0.000242638  -0.000275453
    0.0637956   -0.00129932     -0.158483    -0.0655788     0.0194387     0.0105678    0.00308753  -0.000178898  -0.000718367  -0.000568482   0.000360454  -0.000361281
    0.0608702     0.0065295     -0.155682     -0.062763     0.0138228     0.0159409     0.0010406   0.000517275  -0.000403192   -0.00041829  3.73715e-005  -0.000106573
    0.0620272    0.00374926     -0.153462    -0.0666011     0.0246514     0.0116375     0.0012983   0.000602906  -0.000271995  -0.000534636  -0.000531722  -0.000362866
    0.0631328     0.0123582     -0.152137     -0.065596     0.0202278     0.0120566  -0.000337072    0.00203475  -0.000404591  -0.000418263  4.36596e-005  -0.000106514
    0.0630575     0.0144681     -0.154215     -0.062143     0.0115478     0.0148339   -0.00245005  -0.000929394  3.99586e-005   -0.00039066   -0.00084735  -0.000110326
    0.0632221     0.0126231     -0.155121     -0.061203     0.0237167     0.0095644   -0.00108656   -0.00177371  -0.000106538  -0.000277699  -0.000263887   0.000148932
    0.0669471     0.0210323     -0.157375     -0.052429     0.0243922     0.0142612   -0.00328022  -0.000916093 -4.54723e-005  -0.000598575  -0.000561227   0.000443698
     0.063732     0.0216181     -0.154233    -0.0566774     0.0180353     0.0135615   -0.00237659   -0.00162477  4.40128e-005  -0.000672594   0.000273946   -0.00024218
    0.0637765     0.0215978     -0.142121    -0.0586577     0.0159326     0.0143845   -0.00128238   0.000118289   0.000917918  9.70335e-005  -0.000392541   0.000229694
    0.0627824     0.0296627     -0.157345     -0.057781     0.0177513     0.0150743   -0.00258149   -0.00256196   0.000320768    0.00045784 -2.85947e-005   0.000622963
     0.059541     0.0232586       -0.1623    -0.0618639     0.0284119    0.00890035   -0.00176921   -0.00353893  -0.000420683  -0.000427217  6.26222e-005  -0.000106124
    0.0613275     0.0289498     -0.153471    -0.0581068     0.0224841     0.0127693   -0.00160234   -0.00265081  -0.000381107 -4.41727e-005   0.000884397   0.000662872
    0.0584026     0.0371748     -0.155953    -0.0593953     0.0168036     0.0138921   0.000156124   -0.00265074   0.000546781   0.000269132   0.000233055  -0.000320236
    0.0583871        0.0349     -0.154765    -0.0587787     0.0245352     0.0147006   -0.00160317   -0.00197694  -0.000298459   0.000163924   0.000611042    0.00011029
    0.0621235     0.0345891     -0.158525     -0.054905     0.0289474     0.0161517   -0.00403308   -0.00218053  -0.000242614  -0.000158902   0.000316549    0.00040689
    0.0537547     0.0350336     -0.155093    -0.0617466     0.0229673     0.0103282    0.00113115   -0.00244546   0.000347453  -0.000522483 -5.06788e-005  1.53731e-005
    0.0423058     0.0352152     -0.149081    -0.0715706     0.0203864    0.00540224    0.00633373   -0.00292922   0.000367977  6.03157e-006  -3.2602e-005  -0.000834403
    0.0440841     0.0360403     -0.152471    -0.0658416     0.0184552     0.0083154    0.00351545   -0.00212667   0.000145526   0.000194872  -0.000293987   0.000107795
    0.0487268     0.0421261     -0.153606    -0.0598079     0.0195678     0.0103505   0.000130007    -0.0026195   0.000543546   0.000266018   0.000237905  -0.000321419
    0.0427686     0.0392242     -0.153989    -0.0666504     0.0201026     0.0077154     0.0032963   -0.00059647 -8.01203e-005    0.00025322  -0.000244431  -0.000701542
     0.044682     0.0441882     -0.156384    -0.0615004     0.0178085     0.0108282   0.000469687   -0.00144898   0.000547186   0.000267811   0.000234346  -0.000320347
    0.0446356      0.048231     -0.152124    -0.0640847     0.0276651    0.00510928  -0.000991573   -0.00358336    0.00059222 -5.82673e-005 -5.60955e-005 -2.55172e-005
    0.0442138      0.044082     -0.152415    -0.0674114     0.0269871    0.00237901   0.000933098   -0.00283824   0.000283689  -0.000205675       0.00026  -0.000281325
    0.0486947     0.0456142     -0.153564    -0.0605299      0.018948    0.00987686    0.00130104   0.000207917    0.00100449  2.20205e-005   0.000451545  -0.000453081
    0.0470167     0.0519228     -0.152749    -0.0601122     0.0185344     0.0107454  -0.000285852   -0.00100917   0.000295366  -0.000201271   0.000253775  -0.000282937
    0.0495027     0.0550449     -0.151311     -0.061005     0.0242403    0.00958239   -0.00181537   -0.00339282   0.000539665   0.000265736   0.000244329  -0.000322213
    0.0465605     0.0577012     -0.146021    -0.0653625     0.0229659    0.00994517    1.419e-005   -0.00262232    0.00105322  -0.000298806   0.000149984   -0.00015918
    0.0400061     0.0619437     -0.140106    -0.0689771     0.0176748       0.01082    0.00234806   -0.00302116   0.000542621   0.000272696    0.00022356  -0.000324293
    0.0431167     0.0617304     -0.139539    -0.0684535     0.0242782    0.00974574    0.00250229   -0.00339819   0.000221281   0.000403927  -0.000565052  -0.000449309
    0.0536865     0.0680772     -0.141437    -0.0580159     0.0315829      0.012757   -0.00166315   -0.00434946   0.000844898    0.00041748 -7.59081e-005 -6.78587e-005
    0.0497148     0.0727192     -0.138196    -0.0603647     0.0276824     0.0128233   -0.00115424   -0.00321422  -0.000248106  -0.000155761   0.000308549   0.000399383
    0.0445861     0.0712845     -0.138682    -0.0637821     0.0283442    0.00847335   -0.00173322   -0.00448085  -0.000172846  4.50153e-005  4.27851e-005  -0.000154462
    0.0490319     0.0762481     -0.141121     -0.054481     0.0300563     0.0103975   -0.00435516   -0.00388607   0.000137842   0.000190288  -0.000266376   0.000100961
    0.0474039     0.0779785     -0.140057     -0.056417     0.0283827     0.0143439   -0.00423806   -0.00418119   0.000140064   0.000194136   -0.00027354   0.000101441
    0.0433009     0.0718963     -0.141225    -0.0615891     0.0264324     0.0108116   -0.00276303   -0.00614106   0.000418046  -0.000320166  -0.000311073  -0.000545051
    0.0424893     0.0733678     -0.142704    -0.0612911     0.0285713    0.00841886   -0.00247879     -0.003674   0.000592793 -5.55021e-005 -5.53105e-005 -2.96001e-005
    0.0399963     0.0723918     -0.138577    -0.0633653     0.0306803    0.00831672   -0.00214029   -0.00407936   5.5233e-005 -1.24247e-005 -4.49796e-006    0.00065602
    0.0346549     0.0796205     -0.136338    -0.0608219     0.0281106     0.0093299   -0.00318379   -0.00462182  -0.000287682  -0.000542697  -0.000510115  -0.000375525
    0.0318631     0.0880475     -0.136353    -0.0609468     0.0237708     0.0112481   -0.00470818    -0.0045901   0.000650256  -0.000377386  -0.000358527   0.000262402
     0.026123     0.0825388     -0.135427    -0.0673752     0.0192394     0.0096907   -0.00112621   -0.00425426 -5.54641e-005  -0.000596608  -0.000572529   0.000434509
    0.0274515     0.0858173     -0.134951    -0.0613672     0.0264813    0.00913957   -0.00143047   -0.00407438   -0.00011478  -0.000277128  -0.000261087   0.000138382
    0.0344544     0.0840948     -0.136995    -0.0550002     0.0352582    0.00988245   -0.00437817   -0.00401863   -0.00011714  -0.000279643  -0.000247593   0.000139105
    0.0301001     0.0956968     -0.139063     -0.056573     0.0304532    0.00991415   -0.00450787   -0.00347632  -0.000366311  -0.000748164  -0.000232776   0.000177496
    0.0198466     0.0967139     -0.136217    -0.0636742     0.0222824    0.00970024   -0.00226841   -0.00238476  -0.000109249   -0.00027535  -0.000263893   0.000138173
    0.0220309     0.0879515     -0.139562    -0.0642981     0.0240468    0.00794999   -0.00450832   -0.00301903   0.000196954  -0.000131016  -0.000576253   0.000395987
    0.0237953     0.0873486       -0.1405    -0.0637043     0.0293711    0.00659352   -0.00561505   -0.00458046  5.36706e-005 -1.76251e-005    5.554e-006    0.00065435
    0.0189736      0.085661     -0.135665    -0.0680542     0.0224003     0.0105864    -0.0041371   -0.00426439   0.000479612  -0.000640194  -0.000619259  -0.000251027
    0.0279406     0.0925905     -0.138954    -0.0579758     0.0300864    0.00916038   -0.00716548   -0.00585423  -0.000428355   -0.00043149  7.74097e-005  -0.000118818
    0.0264965     0.0967736     -0.135364    -0.0561309     0.0314403    0.00494214    -0.0055162   -0.00545859  8.07465e-005    -0.0010026 -4.51911e-006  4.25531e-005
    0.0100185     0.0975239     -0.129097    -0.0691472     0.0243698    0.00626066   -0.00430255   -0.00486392  -0.000516031  -0.000353886  -0.000779521   0.000564095
    0.0136039      0.102013     -0.129826    -0.0687389     0.0301046     0.0049799   -0.00334428   -0.00547299  -0.000178496  4.17007e-005  4.76207e-005   -0.00015881
    0.0206991      0.112586       -0.1321     -0.058238     0.0234456     0.0119593   -0.00510441   -0.00385032   0.000993399   1.8339e-005   0.000467492  -0.000464353
    0.0166556       0.11242     -0.127366    -0.0643974     0.0197891      0.011063   -0.00466288   -0.00422795   0.000457472  6.17845e-005   0.000513883   0.000220785
     0.015165      0.108198     -0.126189    -0.0713379     0.0223649    0.00747651      -0.00458   -0.00301873   0.000537857   0.000267948   0.000241472  -0.000331205
    0.0152481      0.113479     -0.125607    -0.0672352     0.0207004     0.0126826   -0.00639913   -0.00369807   0.000792073   0.000738277   0.000224903  -0.000371277
    0.0100362      0.121489     -0.119259    -0.0681572     0.0198502     0.0115524   -0.00621706   -0.00416092   0.000538003   0.000268237   0.000241541  -0.000334818
   0.00728502      0.127193     -0.115604    -0.0670531     0.0236044     0.0113804   -0.00713486   -0.00405056  8.15886e-005   0.000515254  2.70098e-005  -0.000203589
    0.0122173      0.119229     -0.115202    -0.0678511      0.026928     0.0108756   -0.00369168   -0.00400372   0.000389041   0.000666235  -0.000299752  5.46056e-005
    0.0114862      0.116381     -0.110397    -0.0710266      0.032659    0.00673861   -0.00304241   -0.00509424   0.000893558  9.55653e-005  -0.000381344   0.000217628
   0.00889081      0.126737     -0.115127    -0.0660151       0.02958     0.0086464   -0.00578534   -0.00586674   0.000837651   0.000413531 -7.02292e-005  -7.9299e-005
   0.00957316      0.130968     -0.119683    -0.0630389     0.0243946     0.0103694   -0.00560319   -0.00551703   0.000841478   0.000413682 -7.15977e-005 -7.95424e-005
   0.00687213      0.128629     -0.110244    -0.0663067     0.0280058    0.00840391   -0.00654545   -0.00619875  -0.000178958  4.24186e-005  4.93832e-005  -0.000166582
 8.52548e-005      0.129575     -0.104418    -0.0683838     0.0253851    0.00800243   -0.00402869   -0.00620634  -0.000316176   0.000160072   0.000615214  8.98921e-005
  -0.00100491      0.135208     -0.104121    -0.0673945     0.0263794    0.00616176   -0.00515599    -0.0066512   0.000639184  -0.000379377  -0.000357676    0.00025081
  -0.00134763      0.142117     -0.103381    -0.0638758      0.025686    0.00842574   -0.00915402    -0.0062763  -0.000431102  -0.000429934     7.24e-005  -0.000131685
   0.00139555      0.142167     -0.104117    -0.0622524     0.0295646     0.0101246   -0.00906946   -0.00654944  -0.000375324  -0.000749808   -0.00023013   0.000164816
 -0.000748323       0.14042     -0.103168    -0.0603984     0.0313542     0.0110979   -0.00727761   -0.00674061   0.000331124  -0.000526843 -3.19963e-005 -6.38929e-006
   -0.0129277      0.144352    -0.0996725    -0.0658657     0.0247803    0.00788841   -0.00729247   -0.00583612  -0.000259045  -0.000164715   0.000320305   0.000382165
   -0.0179906      0.143102    -0.0924233    -0.0744241     0.0294424    0.00227985    -0.0048875   -0.00684747  -0.000690221  -0.000898215  7.98345e-005 -9.36562e-005
   -0.0101801        0.1453     -0.097403    -0.0654795     0.0339749    0.00694555   -0.00750683   -0.00684921   0.000327143  -0.000528528 -3.00593e-005  -7.5731e-006
  -0.00795924      0.143176     -0.103875    -0.0589669     0.0308348     0.0121631   -0.00982182   -0.00754913  -0.000124715  -0.000282427  -0.000244495   0.000125074
   -0.0147731      0.143851    -0.0983789    -0.0635269     0.0300472    0.00929928   -0.00886183   -0.00733693   0.000328872  -0.000530058 -2.94962e-005 -8.29196e-006
   -0.0184789       0.14789    -0.0964705    -0.0642971     0.0318709    0.00667282   -0.00805234   -0.00659519  7.59459e-005  -0.000999888  -1.1563e-005  3.01603e-005
   -0.0151077      0.147414    -0.0932881    -0.0632887     0.0312486    0.00618834   -0.00894612   -0.00949644   0.000240851  -0.000739311   0.000247081   0.000542722
    -0.017291       0.15755    -0.0871798    -0.0561629     0.0364926    0.00597455    -0.0103006    -0.0094286    0.00026238  -0.000215681   0.000288826  -0.000309739
   -0.0158048      0.163062    -0.0864521    -0.0546581     0.0377722    0.00840146    -0.0119682   -0.00868306 -1.85276e-005   0.000297666   0.000326076   0.000337052
   -0.0102914      0.151217      -0.08704    -0.0590028     0.0398949    0.00987643    -0.0101921   -0.00939628    0.00026371  -0.000210178   0.000282428  -0.000307148
   -0.0180319      0.150477    -0.0777985    -0.0684694       0.04406     0.0051458   -0.00509115   -0.00792821   0.000773605  -0.000773764    0.00018411  -0.000143306
   -0.0209494      0.160074    -0.0721535    -0.0664726     0.0430079    0.00606008   -0.00418793   -0.00803644   0.000352898  -0.000145002   0.000791444   0.000759047
   -0.0169136      0.166011    -0.0767787    -0.0536169     0.0434129     0.0126734    -0.0100447   -0.00928539  -0.000328943   0.000154865   0.000638431  7.93569e-005
   -0.0255846       0.17122    -0.0739032    -0.0571771     0.0434029     0.0103755   -0.00868878   -0.00863458   0.000491311   -0.00026503    0.00022985   0.000498855
   -0.0297178      0.169134     -0.070115    -0.0618081     0.0398501    0.00857398   -0.00735896   -0.00827118   0.000516042   0.000262183   0.000255598  -0.000351063
   -0.0238066      0.174859    -0.0739316    -0.0484499     0.0416426     0.0144373    -0.0129759   -0.00880551   0.000322353  -0.000532727 -1.37056e-005 -1.80739e-005
   -0.0250031      0.178011    -0.0678006    -0.0497152     0.0474507    0.00910342    -0.0131315     -0.010203   0.000565871 -6.75369e-005   -2.265e-005 -5.90048e-005
   -0.0284951      0.176401    -0.0621421    -0.0564818     0.0477983    0.00340202    -0.0105764   -0.00940978  -0.000143327  -0.000289081  -0.000228871   0.000111786
   -0.0354651      0.181942    -0.0602028    -0.0558618     0.0393611    0.00929122   -0.00989736    -0.0086145  6.73062e-005    -0.0010014  -5.4722e-006  1.73149e-005
   -0.0475847      0.182023    -0.0549132    -0.0623558     0.0358885    0.00622417      -0.01023    -0.0094865 -8.15835e-005  -0.000608301  -0.000545878   0.000404625
   -0.0511005      0.186946    -0.0535491    -0.0634971     0.0333358    0.00594343    -0.0091169     -0.008842  -0.000525817  -0.000638946   0.000344166    0.00040529
   -0.0509244      0.184938    -0.0540921    -0.0608426     0.0324298    0.00975558    -0.0102818   -0.00900184  3.74111e-005 -2.06707e-005  6.44454e-006   0.000623015
   -0.0488143       0.19054    -0.0530103    -0.0550981     0.0389832    0.00768446    -0.0131851   -0.00966978  -0.000333211   0.000147091    0.00064572  6.90694e-005
   -0.0564332      0.200095     -0.045486    -0.0561238     0.0339519    0.00689915    -0.0129894    -0.0087339 -7.98374e-005   -0.00061136  -0.000538303   0.000399048
   -0.0655721      0.193677    -0.0432973    -0.0587814     0.0345569    0.00393563    -0.0127519    -0.0102259  -0.000279206  -0.000177923   0.000340859   0.000360845
   -0.0619414      0.190787    -0.0470373    -0.0584705     0.0407287     0.0038502    -0.0123756    -0.0106071  -0.000281911  -0.000177275   0.000343345   0.000363083
   -0.0595669      0.187913    -0.0414176    -0.0573577     0.0445975    0.00447551    -0.0128562    -0.0108687  -0.000486637   0.000539755   0.000109498   0.000455522
   -0.0596482      0.188735    -0.0403521    -0.0526719     0.0488029    0.00419942    -0.0148106    -0.0133806 -3.89251e-005   0.000287039   0.000339078   0.000321662
   -0.0597689      0.205536    -0.0385322    -0.0465448     0.0444522    0.00678601     -0.014674    -0.0105127  -0.000453697  -0.000443641   0.000100007  -0.000156479
   -0.0690835      0.208513    -0.0275052    -0.0540367     0.0415953    0.00307205    -0.0107386    -0.0100511 -3.10971e-005   0.000292566   0.000324268   0.000316939
   -0.0774122      0.211253    -0.0238306    -0.0563559     0.0352439     0.0025627   -0.00984774   -0.00859513   0.000363159   0.000646832  -0.000273826   1.8404e-005
   -0.0774296      0.213185    -0.0212488    -0.0544828     0.0417631    0.00342916    -0.0118743   -0.00941867  -0.000485016   0.000539858   0.000106237   0.000447367
    -0.080774       0.20466    -0.0188815    -0.0565811     0.0446118   0.000725957    -0.0118666   -0.00995337  -0.000351513   0.000421243  -0.000465492    0.00018954
   -0.0768115      0.211419    -0.0162892    -0.0498719     0.0426462    0.00526019    -0.0140234    -0.0101625 -3.13653e-005   0.000289899   0.000330314   0.000312898
   -0.0782513      0.215522    -0.0109001    -0.0494614     0.0468001    0.00559173    -0.0133027    -0.0107748   0.000168361  -0.000425883    0.00056516   0.000218582
    -0.084025      0.222624   -0.00497384    -0.0515188      0.043767    0.00457737    -0.0133847    -0.0106411  -0.000342969   0.000142636   0.000647922  5.28423e-005
   -0.0810088      0.219686   -0.00180082    -0.0510265     0.0448584    0.00161391    -0.0126375    -0.0106539  -0.000208012  2.46519e-005  7.60091e-005  -0.000206224
   -0.0831712      0.210779   0.000247329    -0.0548719     0.0482012   0.000325391    -0.0112991   -0.00993626   0.000157066  -0.000146774  -0.000551571   0.000347633
   -0.0827015      0.217364    0.00570788    -0.0529564     0.0502892    0.00140473    -0.0126583    -0.0121998  1.42647e-005 -3.24511e-005  2.72992e-005   0.000603193
   -0.0824443      0.220856     0.0102098    -0.0481113      0.055498    0.00163457    -0.0142423    -0.0120829  -0.000239758   -0.00050368  5.22227e-005   0.000640495
   -0.0909131      0.225216     0.0196202    -0.0501723     0.0543725    0.00116893    -0.0116212   -0.00973449   0.000406301   0.000322967  -0.000566316   0.000302675
   -0.0961591      0.226316     0.0255268    -0.0531953      0.049042   0.000767708    -0.0116338    -0.0100549  -0.000291558  -0.000178747   0.000340778   0.000340854
    -0.101359      0.230833     0.0301492    -0.0518501     0.0492475   0.000624231    -0.0111033    -0.0108953  -0.000554875   -0.00036982  -0.000754687   0.000508694
   -0.0989374      0.236259     0.0327303     -0.046684     0.0531645    0.00124733    -0.0114126    -0.0107097  -0.000214229  2.48092e-005  7.46592e-005  -0.000216194
    -0.098528        0.2349     0.0369534    -0.0448687     0.0502038    0.00329908    -0.0101566    -0.0101623   0.000269106   0.000439149  2.34955e-006   0.000553764
    -0.105003      0.240281     0.0492781    -0.0435422     0.0509276    0.00122927   -0.00965764   -0.00991966   -0.00061147 -4.86277e-005  -0.000452162   0.000206165
     -0.10678      0.245193     0.0562908    -0.0407672     0.0557699   0.000743175    -0.0111382   -0.00896928 -4.22643e-005   0.000288619   0.000329021   0.000290929
    -0.111276      0.246429     0.0675876    -0.0327357     0.0584483   -0.00117192    -0.0119943   -0.00969219  -0.000616711  -5.5655e-005  -0.000436436   0.000198924
    -0.111304      0.249921      0.060256    -0.0298519     0.0618626   -0.00268704    -0.0133693    -0.0102047  3.83054e-005   -0.00102343  2.72466e-005 -2.55028e-005
    -0.118385      0.252588     0.0584931    -0.0366986     0.0579661  -0.000557707    -0.0112831    -0.0112353  -0.000107194  -0.000623544  -0.000523821   0.000364913
    -0.121041      0.252066     0.0759521    -0.0326432     0.0607777   -0.00475089   -0.00992007    -0.0110849  -0.000451958     0.0002057   -0.00018177   0.000710379
    -0.117087      0.249468     0.0777781    -0.0322288     0.0670468   -0.00719802   -0.00982389    -0.0108415  8.04393e-005   0.000162586  -0.000229746  2.48522e-005
    -0.118759      0.247307     0.0795473    -0.0320275     0.0657776   -0.00548146    -0.0105458   -0.00986478  -0.000371045   0.000411214  -0.000450068   0.000156988
    -0.122688       0.24717     0.0900359    -0.0342353     0.0671819   -0.00752725   -0.00984088   -0.00901829  -0.000315028  9.04938e-005  -0.000755792   0.000450436
    -0.126037      0.250352     0.0954171    -0.0314795     0.0678234   -0.00996053    -0.0097101    -0.0100876   0.000842478  6.09853e-005  -0.000331165   0.000143924
    -0.127498      0.255691      0.100421    -0.0244129     0.0644014   -0.00686384    -0.0101737   -0.00957603   0.000138921  -0.000161412  -0.000532104   0.000311884
    -0.132775      0.258352      0.108557     -0.026282     0.0587035   -0.00676332   -0.00775288   -0.00726388   0.000260063   0.000427875  1.32558e-005   0.000528734
    -0.137472      0.248511      0.115446    -0.0321195     0.0620117   -0.00888733   -0.00763969   -0.00611366   0.000543223 -8.26301e-005 -2.57052e-005  -0.000117605
      -0.1364       0.25637      0.121949    -0.0263897     0.0702284    -0.0094044    -0.0100741    -0.0074643   0.000708013   0.000177778   0.000241451    0.00039428
    -0.139553      0.264789      0.125297    -0.0191435     0.0697988     -0.011409    -0.0119686    -0.0080678  -0.000204632   0.000666149  -0.000183047   0.000654765
    -0.146396      0.262755      0.132311    -0.0230278     0.0653798    -0.0117061    -0.0100936   -0.00793665 -5.74346e-005   0.000272215   0.000345971   0.000264274
    -0.148859      0.262669      0.138265     -0.022069      0.063991     -0.011972    -0.0068903   -0.00796418    0.00025108   0.000421695  1.85174e-005   0.000519091
    -0.147221      0.262337      0.140476    -0.0167397      0.068114    -0.0108571    -0.0080784   -0.00745318  -0.000229169   8.2854e-006   9.0628e-005  -0.000253016
    -0.151086      0.268335      0.149326    -0.0134004     0.0716012    -0.0127951   -0.00843337   -0.00710736 -6.88349e-005   0.000549644   -0.00076274   0.000389252
    -0.159676      0.270704       0.16376    -0.0219782     0.0696854    -0.0184712   -0.00480982    -0.0062044  -0.000631619 -6.60168e-005  -0.000436377   0.000168624
    -0.163469      0.273788      0.166928    -0.0164533      0.064834    -0.0126085   -0.00559911   -0.00502566  8.27474e-005   0.000158151  -0.000239573 -4.53856e-006
    -0.161178       0.27493      0.163912   -0.00766375     0.0637789    -0.0109255   -0.00926302   -0.00502905   0.000199003   0.000738564   0.000330146    0.00021288
    -0.168097      0.271568      0.177773    -0.0157884     0.0581892    -0.0166834   -0.00384872   -0.00437221  -0.000177758 -3.50574e-005   -0.00133799   0.000160649
    -0.171712      0.279006      0.186526   -0.00934602     0.0591837    -0.0171068   -0.00607687   -0.00440286   0.000253099   0.000414834  2.08898e-005   0.000500842
    -0.164427      0.289825       0.18273    0.00185049     0.0688953     -0.014705    -0.0110302   -0.00509892  -0.000548095   0.000129605  -0.000684315  -0.000396799
    -0.170452      0.287626      0.191342   -0.00356099     0.0645785    -0.0144655   -0.00733917   -0.00427721  -0.000373856   0.000398679  -0.000446342   0.000116732
    -0.174889      0.283207      0.199032   -0.00717248     0.0664731    -0.0159374   -0.00688665   -0.00488205  -0.000125054    0.00086784  -0.000465697  7.66841e-005
    -0.177871      0.289644      0.204005   -0.00122278     0.0701644    -0.0181604   -0.00706948   -0.00559376  -0.000210451   0.000658223  -0.000185767   0.000627162
    -0.185852      0.292556      0.211273   -0.00508556     0.0664693    -0.0223951   -0.00330442   -0.00507884  1.55861e-005   0.000468171   7.3231e-005  -0.000317721
    -0.184222      0.289535      0.211991   -0.00336901     0.0686687     -0.021437    -0.0039122   -0.00307747  -0.000183109    0.00118658  -0.000161729  -0.000223785
    -0.183342      0.293505      0.213399    0.00779021      0.068916    -0.0173147   -0.00775145   -0.00398188   0.000247889   0.000408156  3.67193e-005    0.00049019
    -0.188748      0.300541      0.221144    0.00549583     0.0719921    -0.0241775   -0.00625953   -0.00532222   0.000205115  2.35324e-005  -0.000786762  -0.000285503
    -0.189904      0.303866      0.228874    0.00654524     0.0710438    -0.0251043   -0.00694239   -0.00641711  -0.000253026   0.000268525   -0.00100237  -0.000156506
    -0.187905      0.303702      0.232824     0.0119435     0.0679584    -0.0201788   -0.00751593   -0.00389766   0.000382381   0.000288797  -0.000534548   0.000224589
    -0.192618      0.305124      0.236225      0.011352     0.0675559    -0.0222091   -0.00686643   -0.00177013   0.000531706  -0.000106292  2.40361e-006  -0.000165114
    -0.194772      0.302394      0.241755     0.0111377     0.0732832    -0.0255578   -0.00632344    -0.0039876 -4.72141e-005  -0.000448172  -0.000767538  -0.000253284
    -0.192469      0.293102      0.243316     0.0115617     0.0782039    -0.0244911   -0.00542646   -0.00367227    0.00108301   0.000509246   -0.00033151  5.25015e-005
    -0.201395      0.308813      0.243132     0.0134626     0.0677391    -0.0219305   -0.00575268   -0.00223294 -7.08962e-005   0.000535916  -0.000756205   0.000353437
    -0.203578      0.317377      0.248458     0.0138723     0.0666266    -0.0251209   -0.00388383    -0.0031487   0.000127869  -0.000182741  -0.000520792   0.000257197
    -0.203988      0.309255      0.253609     0.0118268      0.072624    -0.0275773   -0.00339049   -0.00187426   -0.00018207  -0.000330323  -0.000200199  1.15186e-006
    -0.205825      0.320699      0.259157       0.01779     0.0737836     -0.028639    -0.0059747   -0.00281833   0.000123121  -0.000187413   -0.00050845   0.000253633
    -0.205522      0.325213      0.258054     0.0252845     0.0729433     -0.024271   -0.00862565   -0.00292224  -0.000329217  5.86261e-005  -0.000720709   0.000384551
    -0.210898      0.326284      0.253675     0.0225375     0.0731815    -0.0260175   -0.00665833   -0.00222465     0.0002979  7.65477e-005  -0.000252218   0.000768696
    -0.218051      0.335511      0.257273     0.0217175     0.0725503    -0.0263234   -0.00643649     -0.002561   0.000125389   -0.00018773  -0.000507165   0.000252372
    -0.217115      0.335459      0.259613     0.0246564     0.0704656    -0.0237334   -0.00535009   -0.00247867  -0.000498864  -0.000202865  -0.000983918  -0.000131039
    -0.217611      0.337716      0.254845     0.0286511     0.0757213    -0.0286342   -0.00491863   -0.00308358   0.000121753  -0.000191578  -0.000500216   0.000251387
    -0.227634      0.338669      0.257095     0.0234964     0.0721089    -0.0277668   -0.00366957   -0.00323141 -7.97071e-005   0.000527555  -0.000744814   0.000344673
    -0.229886      0.338479        0.2562     0.0179623     0.0687937    -0.0269661   -0.00243378   -0.00340298  -0.000387124   0.000382612   -0.00043335  8.92027e-005
    -0.226846       0.34827      0.252329     0.0267444     0.0702281    -0.0237582   -0.00405666   -0.00360672 -1.18337e-005 -7.12697e-005  6.38177e-005   0.000509663
    -0.233668       0.35067      0.257512     0.0262662     0.0669013    -0.0263163   -0.00193753   -0.00557712  -0.000528556    0.00049441   0.000146474   0.000343334
    -0.230305      0.353439      0.256831     0.0269105      0.072055    -0.0244763  -0.000272862   -0.00496827   0.000316512   0.000604606  -0.000230297 -8.43288e-005
    -0.219275      0.348845      0.244599     0.0300945      0.075887    -0.0176459   -0.00259421   -0.00431348  -0.000272075  -0.000255546   -0.00103617   0.000683208
    -0.224041       0.35365      0.246387     0.0259725     0.0718318    -0.0205818   -0.00201031   -0.00356448 -4.41104e-005  -0.000446182  -0.000771503  -0.000260298
    -0.232703      0.365136      0.246047     0.0250585     0.0681528    -0.0225367   -0.00212838   -0.00417618 -7.66486e-005   0.000532422  -0.000751302   0.000345833
    -0.228769      0.360567      0.235707       0.02888       0.06975     -0.021156   -0.00214665   -0.00396752   0.000127572  -0.000184813  -0.000512654   0.000255391
    -0.229758      0.360109       0.23731     0.0262617     0.0734547    -0.0230234   -0.00178956   -0.00375313   0.000125582  -0.000184378  -0.000512269   0.000256006
    -0.237236      0.368835       0.23156      0.023528     0.0681457    -0.0228854  -0.000274919   -0.00354591   0.000323827   0.000607851  -0.000232419  -7.7825e-005
    -0.240054      0.381204      0.222165     0.0271974     0.0656282    -0.0214856  -0.000824791   -0.00500006  -7.5285e-005   0.000531974  -0.000749358   0.000350303
    -0.243865       0.38562      0.221219     0.0283919     0.0669614    -0.0212764   -0.00248968   -0.00526331  -0.000499785  -0.000203369  -0.000981064  -0.000125662
    -0.244718      0.383812      0.219114     0.0183553     0.0560422    -0.0189396   0.000392777   -0.00429136   0.000329717   0.000611729  -0.000243689 -7.58531e-005
    -0.245952      0.386956      0.213126     0.0164191     0.0572162    -0.0185479    0.00392511   -0.00489432   0.000840244  4.63932e-005   -0.00033602   8.9911e-005
    -0.241863      0.395632      0.205627     0.0226984     0.0629704    -0.0162146  -0.000731536   -0.00400838 -6.77717e-005    0.00053957  -0.000757931    0.00035576
    -0.235441      0.393667       0.20142     0.0196649     0.0653994    -0.0158741  -0.000668538    -0.0046056   0.000133517   -0.00017526  -0.000523476   0.000264939
     -0.24127      0.392168      0.193766      0.015804     0.0603338    -0.0165617    0.00201595   -0.00355744   0.000333205   0.000617639  -0.000246519  -6.7245e-005
    -0.244188      0.399168      0.188164     0.0154675     0.0530976      -0.01292    0.00201967   -0.00342296   0.000793474   0.000372667  -3.4414e-005   -0.00019897
    -0.239157      0.402999      0.177571     0.0172486     0.0583614    -0.0114464    0.00163417   -0.00450332   0.000710306   0.000168073    0.00024153   0.000357891
    -0.239967      0.402002      0.170523     0.0134055       0.05831      -0.01235    0.00260986     -0.003901   0.000394152   0.000301161  -0.000554127    0.00023508
    -0.241155      0.403712       0.16598     0.0134157     0.0547743     -0.011361    0.00253045   -0.00440828   0.000338524   0.000622144  -0.000252056 -6.00675e-005
     -0.23976      0.405938      0.155177      0.015363     0.0537632    -0.0103444    0.00126384   -0.00482824  -0.000196221   0.000662992  -0.000194508   0.000627922
    -0.239129      0.403361      0.148036     0.0157126     0.0558762    -0.0103334    0.00166677   -0.00551187   0.000394407   0.000298901  -0.000548587   0.000239916
    -0.244568      0.399837      0.143041    0.00949185       0.05635    -0.0111016    0.00341226   -0.00596299    0.00033662   0.000622154  -0.000251766 -5.27644e-005
    -0.244753      0.407683      0.132697    0.00962316     0.0531957    -0.0112009     0.0022158    -0.0047069    0.00047853   0.000505976  -0.000823115  -0.000308916
    -0.239097      0.406952       0.11989     0.0105066     0.0538499   -0.00921528    0.00319863   -0.00454989  -0.000420324   0.000723863  -0.000148677  -0.000171268
    -0.238688      0.405175      0.115134    0.00595615     0.0552014    -0.0115902    0.00615417   -0.00547784  -0.000114941   0.000873282  -0.000473779   8.7702e-005
    -0.233619      0.401759      0.108739    0.00619258     0.0566078   -0.00880328    0.00424547   -0.00549653  -0.000365396   0.000405062  -0.000454457    0.00012926
    -0.235053      0.397248     0.0991619    0.00273514     0.0541087   -0.00863454    0.00303089   -0.00636378   -0.00053691   0.000139669  -0.000707399  -0.000382534
     -0.23434      0.407971     0.0912679    0.00638643     0.0453555   -0.00213595     0.0013031   -0.00627375  -0.000105685   0.000875559  -0.000473526  9.32448e-005
    -0.220743      0.404305     0.0798146     0.0135385     0.0483626   0.000366266   -0.00286928   -0.00681422 -7.42192e-005  -0.000108752   -0.00047754  -0.000512401
    -0.221259        0.4017     0.0742045    0.00829869     0.0481021   -0.00153615   0.000268014   -0.00747786  -0.000416315   0.000726138  -0.000145813  -0.000158494
    -0.222069      0.400436     0.0725919  -0.000657655     0.0429956  -0.000876749    0.00246388   -0.00692576  -0.000355978   0.000410598  -0.000463237   0.000139349
    -0.216048      0.397888     0.0665572   0.000769177     0.0430911   -0.00154602    0.00187395   -0.00782258 -9.84091e-005  -0.000629602  -0.000526107   0.000342826
    -0.217651      0.397946     0.0605454    0.00164048     0.0401979    0.00223271    0.00152535    -0.0066342  -0.000214246   0.000295199   -0.00103671  -0.000115667
    -0.215418      0.393009     0.0599794   -0.00271187     0.0427329   -0.00105634    0.00231011   -0.00830406  -0.000610026 -5.96159e-005  -0.000444307   0.000182305
    -0.211694      0.389622     0.0536228   -0.00563943     0.0365524    0.00326474    0.00473976   -0.00944002   0.000611441   -0.00040146  -0.000341011   0.000176786
    -0.202736       0.38642     0.0437609   -0.00541986     0.0337804    0.00881655    0.00258303   -0.00856841   0.000561773 -7.62695e-005 -4.00824e-005  -0.000115323
    -0.194013      0.381445     0.0389666   -0.00348691     0.0440782    0.00664882    0.00307861    -0.0098619 -7.18879e-005 -9.46708e-005  -0.000504045  -0.000495243
    -0.192332      0.378139     0.0323497    -0.0046349     0.0434028    0.00846446      0.004479   -0.00921368   0.000411666   0.000320939  -0.000576135   0.000278886
    -0.187994      0.379359     0.0255506   -0.00142929     0.0396116     0.0144721    0.00369641    -0.0106652   0.000413874   0.000322691  -0.000578534   0.000279991
    -0.179011      0.377294     0.0186532   0.000306048     0.0446991     0.0164808    0.00159432     -0.009745   0.000107062   0.000176146  -0.000252855  2.64161e-005
    -0.177552      0.364141     0.0117162   -0.00700028     0.0407607      0.014673    0.00284047   -0.00897017 -2.75687e-005   0.000293859    0.00031413    0.00028807
    -0.182473      0.359537    0.00650142    -0.0133249     0.0353452     0.0147273    0.00501523   -0.00802461   0.000114245   0.000181143  -0.000271414  3.26653e-005
    -0.173584      0.360281   0.000153487   -0.00757761     0.0397581     0.0157382    0.00327988    -0.0102577  -0.000289321   0.000103907  -0.000781696    0.00046125
    -0.163301      0.355018   -0.00190859   -0.00575462      0.039177     0.0186315    0.00222979    -0.0113174  -0.000109274  8.93111e-005    0.00058573   0.000845671
    -0.157717        0.3445    -0.0081415    -0.0064012     0.0400566     0.0194713    0.00264507    -0.0105674  -0.000449848  -0.000437512  7.58489e-005  -0.000180492
    -0.154939      0.342957   -0.00869709   -0.00761748      0.040976     0.0167136    0.00283275   -0.00998088  -0.000393754  -0.000759646  -0.000225224   0.000115505
    -0.152818      0.347036    -0.0109132   -0.00788433     0.0348754      0.020592    0.00387114   -0.00859818  -0.000532296  -0.000359004  -0.000773619   0.000504985
    -0.153387      0.329482    -0.0176505    -0.0161658     0.0293395     0.0202419    0.00808291   -0.00930884  -0.000473309   0.000551104  7.08823e-005   0.000432355
    -0.147003      0.317846    -0.0212258    -0.0217574     0.0287075     0.0190453    0.00875936   -0.00960791  -0.000393267   0.000757541  -0.000204145  -0.000118553
    -0.127163      0.320326    -0.0242632   -0.00755446     0.0366673     0.0230946    0.00642141    -0.0108022   0.000115429   0.000186743    -0.0002739  4.41496e-005
    -0.117683      0.314013    -0.0315619   -0.00264453     0.0430297     0.0226743    0.00333793    -0.0117956   0.000737831   0.000199067   0.000213202   0.000428346
    -0.116097      0.301956    -0.0313586    -0.0131583     0.0369436      0.022944    0.00551722   -0.00967667  -0.000897378  -0.000181066  -0.000157243 -3.64957e-005
     -0.11494      0.297046    -0.0306372    -0.0169723     0.0297439     0.0240333    0.00634938   -0.00892711   0.000123351   0.000191646  -0.000285597  4.90855e-005
    -0.107346      0.297304    -0.0369467    -0.0140088     0.0310035      0.025255    0.00379744   -0.00877395  -0.000719951  8.46878e-005  9.49387e-005   0.000479674
   -0.0995155      0.285786    -0.0374052    -0.0160155     0.0336331     0.0233249    0.00565235   -0.00905429  -1.5389e-005   0.000307292   0.000293902   0.000310063
   -0.0929808      0.280198    -0.0411522    -0.0119413     0.0335718     0.0254451    0.00465496   -0.00848812   0.000133467 -8.83501e-005    0.00083503 -7.79173e-005
   -0.0874546      0.278518    -0.0468171    -0.0113961     0.0305067     0.0291777    0.00379429   -0.00923908  -0.000262646  -0.000160605   0.000311607   0.000351463
   -0.0829578      0.264329    -0.0533269    -0.0146368     0.0328229     0.0285268    0.00394578   -0.00905624   0.000126753   0.000193244  -0.000280335  5.82795e-005
    -0.081316      0.256047    -0.0536111    -0.0153007     0.0270579     0.0307261    0.00573059   -0.00733751  -0.000312399   0.000164909   0.000603466  6.04098e-005
   -0.0774904      0.250806      -0.05466    -0.0180414     0.0238387      0.032065    0.00715418   -0.00824281  -0.000255611   -0.00015419   0.000293112   0.000356956
    -0.070559      0.243871    -0.0590127    -0.0174414     0.0253876     0.0327497    0.00657729   -0.00836451   0.000199326  -0.000401537   0.000513398   0.000226576
   -0.0692023      0.241384    -0.0577857     -0.021006     0.0219962     0.0337562    0.00679041   -0.00710903  1.05885e-006   0.000318512    0.00027116   0.000320462
    -0.062469      0.234703    -0.0572934    -0.0180428     0.0261387     0.0329637    0.00587885   -0.00679087  -0.000309018   0.000168808   0.000597452  6.40814e-005
   -0.0534597      0.223606    -0.0598328    -0.0153355     0.0270341     0.0344427    0.00536255   -0.00858874  -0.000346219  -0.000213272  -0.000227614  -0.000707772
   -0.0452253      0.218191    -0.0630902    -0.0155111     0.0315457     0.0351326    0.00491357   -0.00783089  -0.000491477   0.000184306  -0.000764814  -0.000316359
   -0.0404306      0.212024     -0.064992     -0.017213     0.0303836     0.0365868    0.00533323   -0.00606304  -0.000875676  -0.000165286  -0.000179194 -1.74131e-005
   -0.0406752      0.206976    -0.0601437    -0.0208069     0.0292067     0.0362815    0.00620553   -0.00727452   -0.00042343  -0.000412238  3.43828e-005  -0.000150317
   -0.0436443      0.200331    -0.0547457    -0.0240379     0.0278299     0.0328825     0.0118387   -0.00428094  -0.000110124  -0.000259803  -0.000299924   0.000106454
   -0.0390811      0.195242    -0.0580315    -0.0227538     0.0240926     0.0351778    0.00928661    -0.0049685  -0.000872387  -0.000162077  -0.000194846 -1.76635e-005
   -0.0306643      0.187437    -0.0584046    -0.0219363     0.0245784      0.036592    0.00846331   -0.00672356  -0.000703925   0.000101263  6.10066e-005   0.000497321
   -0.0252587      0.183919    -0.0623555     -0.019492     0.0229997     0.0396239    0.00712687    -0.0045821  -0.000104345   -0.00025993  -0.000295496   0.000108564
    -0.017298      0.178716    -0.0610567    -0.0198212     0.0267762     0.0415764    0.00461568   -0.00411322  -0.000354157   0.000500186   0.000888114  -0.000223594
   -0.0141074      0.170097    -0.0617675    -0.0239514     0.0254765     0.0381416    0.00711923   -0.00393399   0.000602606 -3.61865e-005 -9.60039e-005 -6.04486e-005
   -0.0124161      0.164147    -0.0648004    -0.0220597     0.0271541     0.0372652    0.00724854   -0.00459933  -0.000496321   -0.00061366   0.000297672   0.000408527
   -0.0108707      0.155544    -0.0628212    -0.0237099     0.0284188     0.0376294    0.00707546   -0.00391369  -0.000105603  -0.000259195  -0.000295641   0.000112412
  -0.00639569      0.147643    -0.0623353    -0.0258251     0.0282418      0.037368    0.00868994   -0.00354843  -0.000104871   -0.00025712  -0.000301058   0.000113521
  -0.00256327      0.148553    -0.0634489    -0.0225971     0.0290196     0.0378094     0.0083932   -0.00589554  6.15512e-005  4.39362e-006 -4.22964e-005   0.000627287
  -0.00176536      0.143829    -0.0624968    -0.0229951     0.0230344     0.0399899     0.0091854   -0.00581204   0.000600638 -3.62986e-005   -0.00010218 -5.90434e-005
  -0.00211655      0.138701    -0.0593823    -0.0270254      0.023487      0.040349        0.0101   -0.00384849  -0.000102284  -0.000254068  -0.000310932   0.000113422
   0.00736836      0.136034    -0.0585368    -0.0241711     0.0301942     0.0393291    0.00893285   -0.00408312   0.000601329 -3.34828e-005  -0.000101497 -5.75816e-005
    0.0162079      0.123681    -0.0600346    -0.0205254     0.0323389     0.0419445    0.00834564   -0.00326101    0.00029521  -0.000180479   0.000219439  -0.000312726
    0.0161777      0.123093    -0.0611055    -0.0221529     0.0320903     0.0419141    0.00782685   -0.00230869  -0.000100766  -0.000253287  -0.000302736   0.000116028
    0.0167877      0.113384    -0.0591772    -0.0259272     0.0337682     0.0392877    0.00669638   -0.00483161   0.000461389  8.07461e-005   0.000477261   0.000202745
    0.0133124      0.113017    -0.0607234    -0.0273979     0.0263438     0.0418977    0.00767131   -0.00459823   0.000774956    0.00023115   0.000148108   0.000459436
    0.0157907       0.12345    -0.0586299    -0.0244054     0.0279183     0.0415063    0.00922768   -0.00645989   0.000265529  -0.000708279   0.000183682    0.00053546
    0.0187658      0.112437    -0.0591397    -0.0258484     0.0254522     0.0430085     0.0082742   -0.00547263   0.000212891   -0.00038587   0.000483978   0.000241012
    0.0170527      0.106185    -0.0656008    -0.0255883     0.0231254     0.0430014    0.00768834   -0.00413461  -0.000181139  -0.000460384  -3.6908e-005   0.000670783
    0.0209227      0.103948    -0.0650572    -0.0235106     0.0291268     0.0422739    0.00806628   -0.00578287  -0.000187285  -0.000461975 -3.20873e-005   0.000670922
    0.0227783      0.101958    -0.0682217     -0.022586     0.0306581     0.0419053    0.00533353     -0.005629   0.000404897   -0.00082798   -0.00038005   0.000281386
    0.0242936      0.094603    -0.0659311    -0.0221593     0.0357831      0.041704    0.00572928    -0.0053215  -0.000108096  -0.000258753  -0.000294629   0.000118803
    0.0241912     0.0912019    -0.0654717    -0.0270841     0.0332572     0.0398033    0.00684972    -0.0047869   -0.00024447  -0.000141397   0.000274291   0.000377462
    0.0276903     0.0971547     -0.072415    -0.0215373     0.0254324     0.0430378    0.00601059   -0.00397051  -0.000489832  -0.000610796   0.000291483   0.000416004
    0.0292375     0.0884825    -0.0721617    -0.0229298     0.0239275     0.0433485    0.00718625   -0.00286759  -0.000349351  -0.000724969  -0.000288321   0.000159017
    0.0228319     0.0826307    -0.0718529    -0.0305727     0.0234672     0.0375658    0.00905918   -0.00423861   0.000294942  -0.000184403   0.000214037  -0.000307306
    0.0266693     0.0851175    -0.0703957    -0.0266097      0.027111     0.0395486    0.00777156    -0.0059037  -0.000416002  -0.000407594  1.84382e-005  -0.000136962
    0.0318967     0.0848194    -0.0706584    -0.0234587     0.0304052     0.0401726    0.00612898   -0.00469713   0.000601772 -3.75385e-005 -9.51381e-005 -5.12832e-005
    0.0288506     0.0828613    -0.0732167    -0.0231742     0.0305315     0.0396104    0.00501509   -0.00558188  -0.000222192  -0.000847781  -0.000849074 -9.87827e-005
    0.0310044     0.0800304    -0.0753247    -0.0201081     0.0357441      0.042544    0.00322764   -0.00536364   0.000909082   0.000108452  -0.000406613   0.000207078
    0.0318685     0.0747997    -0.0760773    -0.0254044     0.0332015     0.0405835    0.00528703   -0.00622165    0.00046092  7.72124e-005   0.000481487   0.000209355
    0.0364877     0.0758043    -0.0751654    -0.0282075     0.0356533     0.0378383    0.00813001   -0.00617309    0.00110747  -0.000605565  -0.000181558   0.000115392
    0.0432395     0.0722123     -0.074253    -0.0232908     0.0375657     0.0404737    0.00804131   -0.00471206   0.000519103  -0.000239975   0.000174231   0.000505825
    0.0385762     0.0683536    -0.0733286     -0.026352     0.0320084     0.0407922    0.00808924    -0.0033996   0.000352569  -0.000503013 -8.57532e-005 -8.80086e-006
    0.0335931     0.0710317    -0.0734719    -0.0285669     0.0343882     0.0373001    0.00877161   -0.00271889   0.000603323 -3.45786e-005  -0.000101198 -4.74856e-005
    0.0346489     0.0694593    -0.0756203    -0.0251913     0.0305604     0.0395666    0.00641081   -0.00336331   0.000807509  -0.000753876   0.000138467  -0.000141554
    0.0374604     0.0704059    -0.0791454    -0.0201446     0.0293694     0.0437654    0.00472792   -0.00366979   0.000355012  -0.000506479 -7.71895e-005 -9.19388e-006
    0.0391361     0.0670194    -0.0810559    -0.0248264     0.0324099     0.0400485    0.00456486   -0.00477482   0.000910672   0.000109127  -0.000410975    0.00020982
    0.0370683     0.0602336    -0.0810369    -0.0298302     0.0333486     0.0372463    0.00504743     -0.005595   0.000907049   0.000107922  -0.000411632   0.000210831
    0.0382583     0.0598666    -0.0794618    -0.0285212     0.0352066     0.0358135    0.00617362   -0.00582302   0.000767528   0.000223272   0.000163451   0.000468254
    0.0406259     0.0612481    -0.0854404    -0.0244993     0.0321424     0.0394178     0.0047242   -0.00726754   0.000767998   0.000222016   0.000166219   0.000468476
    0.0426838      0.064086    -0.0860693    -0.0211586     0.0303207     0.0425972    0.00419494   -0.00740822   0.000598703 -4.12863e-005 -8.83382e-005 -4.67226e-005
    0.0422825     0.0609864    -0.0834516    -0.0264643     0.0366923     0.0359345    0.00530965   -0.00905158   0.000280087  -0.000192669   0.000236635  -0.000303096
    0.0449973     0.0582924    -0.0851793    -0.0263742      0.040941     0.0356505    0.00625604   -0.00975646   0.000838056   0.000425247   -0.00010006 -8.41435e-005
    0.0485808     0.0610298    -0.0871524    -0.0216478     0.0377321     0.0400231    0.00442416   -0.00953573   0.000135232   0.000203922  -0.000300066  8.65564e-005
    0.0468719     0.0597578    -0.0903905    -0.0220007     0.0338491     0.0417392    0.00333319   -0.00967204   0.000340343  -0.000513142 -6.54841e-005 -6.24077e-006
    0.0472441     0.0588268    -0.0877846    -0.0231765     0.0357861     0.0394111    0.00529626   -0.00751663   0.000847061   0.000427778  -0.000103248 -8.39243e-005
    0.0468309     0.0494319    -0.0904729    -0.0327542     0.0396115     0.0328116    0.00817156   -0.00757196    0.00033782  -0.000510683 -7.27899e-005 -2.69448e-006
    0.0487962     0.0541607    -0.0907812    -0.0285321     0.0358026     0.0380278    0.00634494   -0.00679105  8.44207e-005   0.000529415 -6.13965e-006   -0.00020589
    0.0499991     0.0600431    -0.0911007     -0.026173     0.0327347     0.0401094     0.0048784   -0.00512835   0.000601897 -3.79898e-005 -9.06594e-005 -4.32053e-005
    0.0470599     0.0574184    -0.0915024    -0.0312982     0.0301147     0.0368255    0.00614842   -0.00405276    0.00045723    0.00035796  -0.000633423   0.000346407
    0.0510028     0.0596988    -0.0907504    -0.0278754     0.0315397     0.0378097     0.0041758   -0.00419153   0.000977265  -0.000491549   0.000400587   0.000377992
