-0.663	-0.225	0.438	0.444	-0.55	0.106	-0.08	-0.106	0.022	-0.323	-0.135	-0.197
-0.647	-0.224	0.423	0.436	-0.535	0.1	-0.081	-0.109	0.021	-0.323	-0.14	-0.198
-0.666	-0.235	0.432	0.451	-0.549	0.099	-0.077	-0.105	0.025	-0.321	-0.135	-0.192
-0.683	-0.24	0.443	0.462	-0.563	0.102	-0.075	-0.105	0.026	-0.317	-0.129	-0.185
-0.674	-0.234	0.44	0.454	-0.557	0.103	-0.076	-0.107	0.027	-0.319	-0.134	-0.193
-0.654	-0.236	0.418	0.446	-0.536	0.091	-0.082	-0.112	0.021	-0.326	-0.141	-0.199
-0.658	-0.242	0.416	0.45	-0.537	0.086	-0.083	-0.113	0.019	-0.326	-0.142	-0.198
-0.646	-0.24	0.406	0.443	-0.526	0.083	-0.081	-0.112	0.021	-0.324	-0.142	-0.199
-0.632	-0.235	0.398	0.434	-0.515	0.081	-0.079	-0.109	0.025	-0.319	-0.139	-0.195
-0.651	-0.238	0.413	0.445	-0.532	0.087	-0.07	-0.101	0.035	-0.307	-0.129	-0.186
-0.65	-0.237	0.412	0.444	-0.531	0.087	-0.068	-0.102	0.033	-0.31	-0.131	-0.189
-0.646	-0.235	0.41	0.441	-0.528	0.087	-0.072	-0.102	0.03	-0.315	-0.135	-0.19
-0.659	-0.242	0.416	0.451	-0.537	0.087	-0.071	-0.096	0.035	-0.31	-0.13	-0.186
-0.665	-0.248	0.416	0.457	-0.541	0.084	-0.074	-0.098	0.037	-0.31	-0.129	-0.186
-0.668	-0.248	0.419	0.458	-0.543	0.086	-0.074	-0.107	0.032	-0.315	-0.131	-0.186
-0.673	-0.252	0.421	0.463	-0.547	0.085	-0.069	-0.107	0.033	-0.317	-0.132	-0.188
-0.676	-0.261	0.416	0.468	-0.546	0.078	-0.068	-0.1	0.041	-0.311	-0.13	-0.187
-0.675	-0.255	0.42	0.465	-0.548	0.083	-0.069	-0.103	0.037	-0.316	-0.132	-0.19
-0.669	-0.243	0.425	0.456	-0.547	0.091	-0.071	-0.106	0.033	-0.322	-0.139	-0.194
-0.671	-0.245	0.425	0.458	-0.548	0.09	-0.07	-0.103	0.035	-0.32	-0.136	-0.193
-0.681	-0.251	0.431	0.466	-0.556	0.09	-0.067	-0.104	0.033	-0.322	-0.136	-0.194
-0.689	-0.257	0.431	0.473	-0.56	0.087	-0.069	-0.11	0.029	-0.326	-0.14	-0.199
-0.699	-0.265	0.433	0.481	-0.566	0.084	-0.069	-0.11	0.031	-0.322	-0.138	-0.196
-0.699	-0.261	0.438	0.479	-0.569	0.089	-0.064	-0.108	0.033	-0.321	-0.135	-0.191
-0.696	-0.259	0.437	0.477	-0.567	0.089	-0.06	-0.106	0.035	-0.325	-0.134	-0.19
-0.702	-0.257	0.445	0.479	-0.573	0.094	-0.064	-0.11	0.035	-0.325	-0.134	-0.191
-0.69	-0.247	0.443	0.469	-0.567	0.098	-0.07	-0.112	0.031	-0.327	-0.136	-0.192
-0.681	-0.248	0.433	0.465	-0.557	0.092	-0.068	-0.105	0.034	-0.325	-0.134	-0.189
-0.689	-0.254	0.435	0.471	-0.562	0.091	-0.065	-0.106	0.036	-0.323	-0.134	-0.19
-0.695	-0.264	0.431	0.479	-0.563	0.084	-0.07	-0.112	0.029	-0.33	-0.141	-0.196
-0.699	-0.268	0.431	0.483	-0.565	0.082	-0.071	-0.113	0.026	-0.329	-0.142	-0.197
-0.696	-0.267	0.429	0.481	-0.563	0.082	-0.073	-0.111	0.029	-0.325	-0.141	-0.195
-0.678	-0.256	0.423	0.467	-0.551	0.084	-0.076	-0.109	0.032	-0.325	-0.14	-0.194
-0.658	-0.233	0.425	0.446	-0.541	0.096	-0.07	-0.102	0.041	-0.315	-0.131	-0.185
-0.655	-0.228	0.427	0.442	-0.541	0.1	-0.072	-0.099	0.044	-0.311	-0.126	-0.179
-0.662	-0.227	0.435	0.445	-0.548	0.104	-0.07	-0.094	0.046	-0.311	-0.127	-0.181
-0.663	-0.229	0.434	0.446	-0.548	0.103	-0.068	-0.092	0.046	-0.312	-0.127	-0.181
-0.668	-0.225	0.443	0.447	-0.555	0.109	-0.07	-0.098	0.043	-0.314	-0.127	-0.18
-0.688	-0.217	0.47	0.453	-0.579	0.127	-0.068	-0.093	0.049	-0.306	-0.121	-0.176
-0.677	-0.218	0.459	0.448	-0.568	0.12	-0.073	-0.096	0.046	-0.309	-0.124	-0.178
-0.658	-0.212	0.446	0.435	-0.552	0.117	-0.081	-0.1	0.043	-0.311	-0.127	-0.18
-0.666	-0.215	0.452	0.441	-0.559	0.118	-0.082	-0.098	0.044	-0.31	-0.125	-0.179
-0.674	-0.225	0.45	0.45	-0.562	0.113	-0.08	-0.097	0.045	-0.307	-0.121	-0.177
-0.666	-0.223	0.444	0.445	-0.555	0.11	-0.083	-0.097	0.045	-0.304	-0.12	-0.177
-0.656	-0.218	0.438	0.437	-0.546	0.11	-0.085	-0.095	0.048	-0.308	-0.123	-0.178
-0.657	-0.218	0.44	0.438	-0.548	0.111	-0.087	-0.095	0.046	-0.309	-0.125	-0.178
-0.653	-0.218	0.435	0.436	-0.544	0.108	-0.091	-0.099	0.043	-0.309	-0.126	-0.177
-0.649	-0.223	0.426	0.436	-0.538	0.102	-0.091	-0.095	0.044	-0.306	-0.122	-0.176
-0.651	-0.229	0.422	0.44	-0.537	0.097	-0.091	-0.094	0.046	-0.305	-0.122	-0.176
-0.655	-0.23	0.426	0.443	-0.54	0.098	-0.09	-0.092	0.048	-0.302	-0.12	-0.174
-0.656	-0.232	0.424	0.444	-0.54	0.096	-0.09	-0.087	0.051	-0.298	-0.116	-0.171
-0.657	-0.229	0.428	0.443	-0.543	0.1	-0.09	-0.084	0.058	-0.295	-0.111	-0.168
-0.65	-0.228	0.422	0.439	-0.536	0.098	-0.099	-0.088	0.052	-0.299	-0.116	-0.172
-0.647	-0.228	0.419	0.438	-0.533	0.096	-0.102	-0.09	0.05	-0.3	-0.117	-0.173
-0.667	-0.223	0.445	0.445	-0.556	0.111	-0.099	-0.082	0.06	-0.291	-0.11	-0.165
-0.664	-0.225	0.439	0.445	-0.551	0.107	-0.101	-0.084	0.058	-0.293	-0.11	-0.165
-0.646	-0.229	0.417	0.438	-0.531	0.094	-0.107	-0.088	0.054	-0.298	-0.113	-0.169
-0.639	-0.22	0.419	0.429	-0.529	0.1	-0.114	-0.088	0.056	-0.295	-0.112	-0.168
-0.639	-0.213	0.425	0.426	-0.532	0.106	-0.116	-0.09	0.056	-0.297	-0.111	-0.168
-0.639	-0.213	0.425	0.426	-0.532	0.106	-0.118	-0.089	0.056	-0.297	-0.111	-0.165
-0.639	-0.213	0.425	0.426	-0.532	0.106	-0.119	-0.087	0.059	-0.294	-0.108	-0.164
-0.639	-0.21	0.428	0.425	-0.534	0.109	-0.122	-0.088	0.054	-0.299	-0.113	-0.167
-0.637	-0.209	0.427	0.423	-0.532	0.109	-0.123	-0.086	0.057	-0.295	-0.108	-0.162
-0.636	-0.213	0.422	0.424	-0.529	0.104	-0.123	-0.086	0.059	-0.292	-0.104	-0.159
-0.637	-0.211	0.426	0.424	-0.532	0.107	-0.124	-0.086	0.059	-0.291	-0.105	-0.158
-0.64	-0.21	0.43	0.425	-0.535	0.11	-0.127	-0.085	0.061	-0.288	-0.1	-0.156
-0.64	-0.212	0.428	0.426	-0.534	0.107	-0.128	-0.084	0.06	-0.288	-0.102	-0.156
-0.645	-0.22	0.425	0.432	-0.535	0.103	-0.128	-0.084	0.059	-0.288	-0.103	-0.158
-0.654	-0.227	0.427	0.44	-0.541	0.101	-0.126	-0.086	0.058	-0.291	-0.104	-0.158
-0.649	-0.229	0.421	0.439	-0.535	0.097	-0.124	-0.086	0.057	-0.29	-0.104	-0.16
-0.646	-0.232	0.414	0.439	-0.53	0.091	-0.124	-0.087	0.058	-0.291	-0.105	-0.161
-0.647	-0.234	0.413	0.441	-0.53	0.089	-0.126	-0.086	0.059	-0.29	-0.103	-0.16
-0.65	-0.245	0.406	0.448	-0.528	0.081	-0.127	-0.088	0.056	-0.29	-0.104	-0.162
-0.645	-0.239	0.406	0.443	-0.525	0.084	-0.122	-0.086	0.06	-0.287	-0.102	-0.16
-0.636	-0.224	0.412	0.43	-0.524	0.094	-0.119	-0.082	0.064	-0.284	-0.099	-0.157
-0.627	-0.213	0.414	0.42	-0.521	0.101	-0.117	-0.081	0.064	-0.284	-0.099	-0.156
-0.621	-0.205	0.415	0.412	-0.518	0.105	-0.117	-0.077	0.067	-0.28	-0.096	-0.152
-0.63	-0.21	0.42	0.42	-0.525	0.105	-0.117	-0.08	0.065	-0.282	-0.097	-0.154
-0.636	-0.21	0.426	0.423	-0.531	0.107	-0.111	-0.083	0.064	-0.284	-0.098	-0.157
-0.655	-0.221	0.434	0.438	-0.545	0.107	-0.11	-0.085	0.062	-0.287	-0.099	-0.159
-0.661	-0.214	0.447	0.438	-0.554	0.117	-0.107	-0.084	0.061	-0.287	-0.099	-0.158
-0.655	-0.204	0.452	0.429	-0.554	0.124	-0.101	-0.082	0.064	-0.285	-0.097	-0.155
-0.655	-0.214	0.441	0.435	-0.548	0.114	-0.099	-0.079	0.064	-0.287	-0.099	-0.159
-0.651	-0.214	0.438	0.433	-0.544	0.112	-0.1	-0.078	0.065	-0.286	-0.099	-0.16
-0.671	-0.224	0.447	0.448	-0.559	0.112	-0.101	-0.082	0.06	-0.29	-0.1	-0.162
-0.678	-0.231	0.448	0.455	-0.563	0.108	-0.103	-0.084	0.059	-0.291	-0.1	-0.163
-0.678	-0.234	0.445	0.456	-0.561	0.106	-0.103	-0.082	0.06	-0.292	-0.102	-0.165
-0.688	-0.243	0.445	0.466	-0.566	0.101	-0.1	-0.08	0.064	-0.29	-0.099	-0.16
-0.689	-0.242	0.446	0.466	-0.567	0.102	-0.095	-0.075	0.067	-0.286	-0.095	-0.156
-0.683	-0.238	0.446	0.461	-0.565	0.103	-0.095	-0.074	0.067	-0.285	-0.096	-0.157
-0.685	-0.241	0.445	0.463	-0.565	0.102	-0.097	-0.073	0.07	-0.281	-0.091	-0.152
-0.686	-0.238	0.448	0.462	-0.567	0.105	-0.096	-0.07	0.072	-0.28	-0.09	-0.149
-0.678	-0.229	0.45	0.454	-0.564	0.111	-0.098	-0.073	0.07	-0.282	-0.092	-0.15
-0.679	-0.231	0.449	0.455	-0.564	0.109	-0.101	-0.076	0.067	-0.286	-0.096	-0.157
-0.692	-0.232	0.461	0.461	-0.576	0.115	-0.097	-0.076	0.07	-0.28	-0.093	-0.155
-0.703	-0.23	0.473	0.467	-0.588	0.121	-0.096	-0.075	0.069	-0.282	-0.093	-0.155
-0.708	-0.234	0.473	0.471	-0.591	0.119	-0.094	-0.074	0.07	-0.285	-0.096	-0.157
-0.711	-0.234	0.477	0.471	-0.594	0.122	-0.092	-0.072	0.074	-0.279	-0.089	-0.151
-0.72	-0.237	0.483	0.478	-0.602	0.123	-0.094	-0.072	0.073	-0.28	-0.088	-0.148
-0.721	-0.236	0.485	0.478	-0.603	0.124	-0.096	-0.074	0.073	-0.281	-0.091	-0.153
-0.707	-0.23	0.477	0.468	-0.592	0.123	-0.102	-0.081	0.068	-0.287	-0.096	-0.161
-0.699	-0.225	0.474	0.462	-0.587	0.125	-0.107	-0.085	0.061	-0.293	-0.1	-0.164
-0.711	-0.225	0.486	0.468	-0.599	0.131	-0.102	-0.078	0.069	-0.286	-0.092	-0.157
-0.724	-0.238	0.485	0.481	-0.605	0.123	-0.096	-0.071	0.073	-0.281	-0.086	-0.151
-0.732	-0.245	0.486	0.489	-0.61	0.12	-0.092	-0.066	0.079	-0.275	-0.082	-0.148
-0.732	-0.238	0.493	0.485	-0.613	0.128	-0.092	-0.073	0.075	-0.275	-0.084	-0.148
-0.719	-0.227	0.492	0.472	-0.606	0.133	-0.096	-0.08	0.07	-0.278	-0.087	-0.151
-0.689	-0.231	0.459	0.46	-0.574	0.115	-0.105	-0.086	0.066	-0.282	-0.091	-0.156
-0.671	-0.237	0.434	0.454	-0.552	0.099	-0.108	-0.09	0.058	-0.288	-0.099	-0.161
-0.673	-0.233	0.442	0.453	-0.557	0.104	-0.105	-0.086	0.058	-0.286	-0.097	-0.16
-0.653	-0.232	0.421	0.442	-0.537	0.095	-0.116	-0.096	0.051	-0.295	-0.102	-0.167
-0.636	-0.232	0.405	0.433	-0.52	0.087	-0.121	-0.103	0.046	-0.296	-0.105	-0.172
-0.64	-0.232	0.408	0.436	-0.524	0.088	-0.123	-0.104	0.045	-0.297	-0.107	-0.172
-0.64	-0.231	0.41	0.435	-0.525	0.09	-0.124	-0.103	0.044	-0.303	-0.112	-0.174
-0.659	-0.228	0.432	0.444	-0.546	0.102	-0.12	-0.098	0.05	-0.297	-0.107	-0.169
-0.685	-0.234	0.452	0.46	-0.569	0.11	-0.114	-0.089	0.059	-0.285	-0.098	-0.159
-0.678	-0.239	0.439	0.459	-0.558	0.1	-0.113	-0.09	0.059	-0.285	-0.097	-0.159
-0.672	-0.236	0.436	0.455	-0.554	0.1	-0.117	-0.093	0.053	-0.288	-0.102	-0.163
-0.661	-0.232	0.43	0.447	-0.546	0.1	-0.123	-0.102	0.048	-0.295	-0.109	-0.17
-0.652	-0.227	0.426	0.44	-0.539	0.1	-0.128	-0.11	0.043	-0.301	-0.113	-0.174
-0.648	-0.22	0.428	0.433	-0.538	0.104	-0.132	-0.107	0.045	-0.298	-0.111	-0.17
-0.654	-0.221	0.432	0.438	-0.543	0.106	-0.129	-0.103	0.051	-0.292	-0.103	-0.164
-0.695	-0.225	0.47	0.46	-0.583	0.122	-0.116	-0.089	0.066	-0.276	-0.088	-0.148
-0.697	-0.22	0.477	0.459	-0.587	0.129	-0.114	-0.085	0.066	-0.276	-0.09	-0.149
-0.675	-0.22	0.456	0.448	-0.566	0.118	-0.118	-0.095	0.058	-0.286	-0.1	-0.159
-0.666	-0.216	0.45	0.442	-0.558	0.117	-0.126	-0.102	0.056	-0.288	-0.101	-0.159
-0.675	-0.218	0.457	0.447	-0.566	0.119	-0.126	-0.104	0.052	-0.29	-0.102	-0.161
-0.686	-0.229	0.458	0.458	-0.573	0.115	-0.122	-0.102	0.053	-0.289	-0.099	-0.161
-0.679	-0.23	0.451	0.455	-0.565	0.111	-0.12	-0.102	0.054	-0.287	-0.099	-0.158
-0.679	-0.228	0.452	0.454	-0.565	0.112	-0.12	-0.104	0.051	-0.288	-0.1	-0.16
-0.674	-0.23	0.445	0.452	-0.559	0.108	-0.125	-0.106	0.047	-0.292	-0.103	-0.164
-0.661	-0.229	0.433	0.445	-0.547	0.102	-0.127	-0.113	0.043	-0.297	-0.108	-0.166
-0.667	-0.228	0.44	0.447	-0.553	0.106	-0.129	-0.112	0.042	-0.297	-0.11	-0.166
-0.674	-0.231	0.444	0.453	-0.559	0.107	-0.126	-0.111	0.042	-0.296	-0.107	-0.166
-0.67	-0.231	0.44	0.451	-0.555	0.104	-0.126	-0.114	0.04	-0.299	-0.111	-0.169
-0.657	-0.233	0.424	0.445	-0.541	0.096	-0.132	-0.117	0.036	-0.304	-0.114	-0.172
-0.659	-0.237	0.422	0.448	-0.541	0.093	-0.129	-0.113	0.038	-0.302	-0.112	-0.171
-0.664	-0.231	0.434	0.448	-0.549	0.102	-0.129	-0.115	0.037	-0.305	-0.114	-0.172
-0.645	-0.224	0.422	0.434	-0.534	0.1	-0.137	-0.122	0.032	-0.311	-0.117	-0.175
-0.662	-0.216	0.447	0.44	-0.554	0.115	-0.129	-0.112	0.043	-0.301	-0.107	-0.168
-0.673	-0.203	0.47	0.439	-0.572	0.133	-0.117	-0.103	0.052	-0.292	-0.098	-0.158
-0.666	-0.206	0.46	0.436	-0.564	0.127	-0.123	-0.11	0.044	-0.298	-0.104	-0.162
-0.659	-0.211	0.447	0.435	-0.553	0.117	-0.13	-0.116	0.04	-0.305	-0.11	-0.169
-0.656	-0.205	0.451	0.431	-0.553	0.123	-0.126	-0.111	0.043	-0.301	-0.105	-0.167
-0.686	-0.209	0.476	0.448	-0.582	0.134	-0.116	-0.102	0.051	-0.293	-0.099	-0.159
-0.682	-0.209	0.472	0.446	-0.578	0.132	-0.117	-0.103	0.052	-0.292	-0.098	-0.156
-0.668	-0.207	0.462	0.438	-0.565	0.127	-0.122	-0.108	0.045	-0.297	-0.103	-0.162
-0.674	-0.215	0.459	0.445	-0.567	0.122	-0.122	-0.113	0.04	-0.301	-0.107	-0.167
-0.684	-0.22	0.465	0.452	-0.575	0.123	-0.115	-0.104	0.048	-0.294	-0.101	-0.158
-0.683	-0.217	0.466	0.45	-0.575	0.124	-0.108	-0.099	0.054	-0.289	-0.093	-0.152
-0.671	-0.216	0.455	0.444	-0.563	0.119	-0.11	-0.097	0.053	-0.291	-0.097	-0.157
-0.672	-0.218	0.454	0.445	-0.563	0.118	-0.108	-0.094	0.054	-0.292	-0.098	-0.157
-0.676	-0.216	0.461	0.447	-0.569	0.122	-0.11	-0.101	0.051	-0.292	-0.1	-0.158
-0.681	-0.219	0.463	0.45	-0.572	0.121	-0.109	-0.103	0.045	-0.294	-0.101	-0.159
-0.686	-0.221	0.466	0.454	-0.577	0.123	-0.106	-0.1	0.049	-0.294	-0.101	-0.16
-0.676	-0.215	0.461	0.446	-0.569	0.122	-0.104	-0.099	0.054	-0.29	-0.096	-0.155
-0.667	-0.217	0.45	0.443	-0.558	0.117	-0.105	-0.101	0.051	-0.29	-0.095	-0.156
-0.663	-0.216	0.447	0.44	-0.555	0.115	-0.112	-0.108	0.043	-0.302	-0.109	-0.167
-0.661	-0.21	0.451	0.435	-0.556	0.12	-0.117	-0.114	0.038	-0.307	-0.113	-0.169
-0.663	-0.207	0.457	0.435	-0.56	0.124	-0.114	-0.112	0.042	-0.303	-0.107	-0.166
-0.655	-0.206	0.449	0.43	-0.552	0.121	-0.114	-0.112	0.04	-0.305	-0.107	-0.167
-0.664	-0.213	0.452	0.439	-0.558	0.119	-0.113	-0.115	0.039	-0.306	-0.107	-0.167
-0.681	-0.22	0.461	0.451	-0.571	0.12	-0.106	-0.11	0.043	-0.302	-0.105	-0.164
-0.679	-0.213	0.466	0.447	-0.573	0.126	-0.103	-0.107	0.045	-0.3	-0.104	-0.163
-0.68	-0.21	0.47	0.445	-0.575	0.13	-0.105	-0.112	0.044	-0.304	-0.106	-0.166
-0.689	-0.212	0.476	0.451	-0.583	0.132	-0.104	-0.11	0.043	-0.304	-0.106	-0.167
-0.701	-0.222	0.478	0.461	-0.59	0.129	-0.103	-0.111	0.043	-0.305	-0.108	-0.169
-0.703	-0.234	0.469	0.468	-0.586	0.117	-0.107	-0.116	0.038	-0.31	-0.115	-0.173
-0.693	-0.238	0.455	0.466	-0.574	0.108	-0.11	-0.118	0.035	-0.311	-0.116	-0.174
-0.694	-0.24	0.454	0.467	-0.574	0.106	-0.106	-0.116	0.038	-0.309	-0.112	-0.172
-0.706	-0.239	0.467	0.472	-0.586	0.114	-0.099	-0.11	0.042	-0.305	-0.108	-0.168
-0.708	-0.236	0.472	0.471	-0.59	0.118	-0.091	-0.104	0.044	-0.304	-0.107	-0.167
-0.699	-0.229	0.47	0.464	-0.585	0.121	-0.089	-0.102	0.05	-0.299	-0.102	-0.162
-0.698	-0.233	0.465	0.465	-0.582	0.116	-0.092	-0.106	0.047	-0.298	-0.103	-0.165
-0.699	-0.239	0.46	0.469	-0.58	0.11	-0.095	-0.108	0.04	-0.306	-0.11	-0.17
-0.704	-0.238	0.466	0.471	-0.585	0.114	-0.092	-0.105	0.045	-0.301	-0.104	-0.166
-0.707	-0.237	0.469	0.472	-0.588	0.116	-0.089	-0.102	0.051	-0.299	-0.104	-0.163
-0.704	-0.235	0.468	0.469	-0.586	0.117	-0.094	-0.103	0.049	-0.303	-0.108	-0.166
-0.697	-0.232	0.465	0.465	-0.581	0.117	-0.101	-0.111	0.043	-0.307	-0.113	-0.172
-0.688	-0.231	0.457	0.459	-0.572	0.114	-0.102	-0.115	0.037	-0.311	-0.115	-0.173
-0.69	-0.231	0.46	0.461	-0.575	0.115	-0.103	-0.115	0.037	-0.31	-0.115	-0.175
-0.697	-0.23	0.467	0.463	-0.582	0.118	-0.097	-0.112	0.04	-0.31	-0.117	-0.177
-0.702	-0.233	0.469	0.467	-0.585	0.118	-0.089	-0.105	0.045	-0.305	-0.111	-0.17
-0.699	-0.24	0.459	0.469	-0.579	0.11	-0.09	-0.104	0.044	-0.306	-0.111	-0.17
-0.694	-0.241	0.453	0.468	-0.573	0.105	-0.091	-0.107	0.043	-0.307	-0.112	-0.17
-0.685	-0.235	0.45	0.461	-0.568	0.107	-0.091	-0.108	0.044	-0.302	-0.11	-0.17
-0.682	-0.236	0.446	0.459	-0.565	0.105	-0.091	-0.112	0.041	-0.309	-0.115	-0.173
-0.683	-0.239	0.445	0.462	-0.564	0.102	-0.087	-0.114	0.037	-0.31	-0.116	-0.174
-0.687	-0.245	0.442	0.466	-0.565	0.099	-0.086	-0.114	0.038	-0.308	-0.117	-0.175
-0.689	-0.247	0.441	0.468	-0.565	0.097	-0.085	-0.111	0.039	-0.308	-0.117	-0.176
-0.681	-0.244	0.436	0.463	-0.558	0.096	-0.08	-0.102	0.043	-0.305	-0.116	-0.177
-0.685	-0.247	0.438	0.466	-0.561	0.096	-0.076	-0.104	0.042	-0.306	-0.116	-0.178
-0.684	-0.243	0.442	0.464	-0.563	0.099	-0.077	-0.107	0.042	-0.305	-0.114	-0.173
-0.697	-0.242	0.454	0.469	-0.576	0.106	-0.072	-0.1	0.047	-0.299	-0.108	-0.17
-0.707	-0.242	0.465	0.474	-0.586	0.111	-0.07	-0.096	0.048	-0.298	-0.106	-0.169
-0.705	-0.243	0.462	0.474	-0.583	0.109	-0.067	-0.092	0.052	-0.294	-0.102	-0.165
-0.712	-0.249	0.463	0.481	-0.587	0.106	-0.066	-0.093	0.052	-0.295	-0.104	-0.167
-0.703	-0.245	0.458	0.474	-0.581	0.106	-0.072	-0.101	0.046	-0.3	-0.11	-0.171
-0.691	-0.24	0.45	0.466	-0.57	0.104	-0.076	-0.105	0.042	-0.304	-0.112	-0.175
-0.686	-0.241	0.446	0.464	-0.566	0.102	-0.081	-0.109	0.04	-0.306	-0.114	-0.177
-0.693	-0.239	0.454	0.467	-0.574	0.107	-0.079	-0.107	0.046	-0.299	-0.107	-0.172
-0.695	-0.238	0.457	0.466	-0.576	0.11	-0.073	-0.103	0.048	-0.296	-0.104	-0.167
-0.691	-0.239	0.452	0.466	-0.572	0.106	-0.072	-0.101	0.051	-0.295	-0.104	-0.166
-0.687	-0.239	0.448	0.463	-0.568	0.104	-0.075	-0.103	0.047	-0.3	-0.106	-0.17
-0.68	-0.244	0.436	0.463	-0.558	0.096	-0.08	-0.109	0.041	-0.303	-0.111	-0.174
-0.683	-0.241	0.441	0.463	-0.562	0.1	-0.081	-0.105	0.051	-0.293	-0.104	-0.172
-0.68	-0.233	0.447	0.456	-0.564	0.107	-0.08	-0.102	0.06	-0.281	-0.093	-0.165
-0.676	-0.231	0.446	0.454	-0.561	0.107	-0.076	-0.101	0.071	-0.266	-0.082	-0.157
-0.676	-0.231	0.446	0.453	-0.56	0.107	-0.074	-0.093	0.084	-0.25	-0.07	-0.15
-0.673	-0.231	0.442	0.452	-0.557	0.105	-0.075	-0.09	0.093	-0.234	-0.061	-0.147
-0.67	-0.23	0.441	0.45	-0.555	0.106	-0.079	-0.093	0.101	-0.224	-0.054	-0.146
-0.67	-0.223	0.448	0.447	-0.559	0.112	-0.08	-0.088	0.116	-0.208	-0.041	-0.139
-0.668	-0.21	0.458	0.439	-0.563	0.124	-0.075	-0.079	0.139	-0.186	-0.028	-0.135
-0.669	-0.203	0.467	0.436	-0.568	0.132	-0.079	-0.071	0.16	-0.165	-0.014	-0.132
-0.668	-0.201	0.467	0.434	-0.568	0.133	-0.087	-0.067	0.183	-0.138	0.006	-0.119
-0.658	-0.196	0.463	0.427	-0.56	0.134	-0.09	-0.056	0.211	-0.11	0.029	-0.107
-0.662	-0.197	0.466	0.429	-0.564	0.135	-0.089	-0.039	0.244	-0.08	0.05	-0.098
-0.655	-0.192	0.463	0.423	-0.558	0.136	-0.095	-0.041	0.257	-0.065	0.06	-0.093
-0.639	-0.181	0.458	0.41	-0.548	0.138	-0.107	-0.056	0.249	-0.064	0.064	-0.091
-0.637	-0.176	0.461	0.406	-0.549	0.142	-0.111	-0.062	0.245	-0.065	0.065	-0.091
-0.649	-0.172	0.476	0.411	-0.563	0.152	-0.107	-0.062	0.237	-0.077	0.054	-0.096
-0.665	-0.176	0.489	0.421	-0.578	0.157	-0.102	-0.062	0.217	-0.102	0.035	-0.106
-0.679	-0.18	0.498	0.43	-0.589	0.159	-0.092	-0.056	0.202	-0.124	0.018	-0.114
-0.7	-0.177	0.523	0.438	-0.612	0.173	-0.079	-0.06	0.165	-0.159	-0.006	-0.125
-0.712	-0.174	0.537	0.443	-0.625	0.181	-0.07	-0.086	0.104	-0.211	-0.043	-0.144
-0.722	-0.176	0.546	0.45	-0.634	0.184	-0.068	-0.101	0.063	-0.248	-0.067	-0.155
-0.725	-0.176	0.548	0.451	-0.636	0.186	-0.068	-0.117	0.03	-0.275	-0.082	-0.159
-0.724	-0.178	0.545	0.451	-0.634	0.183	-0.066	-0.143	-0.004	-0.302	-0.094	-0.154
-0.751	-0.188	0.564	0.469	-0.657	0.188	-0.058	-0.173	-0.046	-0.342	-0.114	-0.152
-0.758	-0.189	0.57	0.473	-0.664	0.191	-0.056	-0.193	-0.083	-0.38	-0.136	-0.152
-0.741	-0.186	0.555	0.464	-0.648	0.184	-0.056	-0.201	-0.11	-0.413	-0.152	-0.149
-0.719	-0.193	0.525	0.456	-0.622	0.167	-0.053	-0.198	-0.138	-0.456	-0.176	-0.148
-0.685	-0.196	0.489	0.441	-0.587	0.146	-0.057	-0.192	-0.159	-0.489	-0.193	-0.142
-0.692	-0.204	0.487	0.448	-0.59	0.141	-0.051	-0.204	-0.189	-0.512	-0.193	-0.117
-0.686	-0.221	0.465	0.454	-0.576	0.122	-0.049	-0.19	-0.201	-0.53	-0.193	-0.096
-0.648	-0.239	0.408	0.444	-0.528	0.085	-0.05	-0.171	-0.229	-0.584	-0.23	-0.107
-0.654	-0.263	0.392	0.459	-0.523	0.065	-0.039	-0.182	-0.298	-0.661	-0.281	-0.12
-0.683	-0.274	0.409	0.478	-0.546	0.068	-0.028	-0.215	-0.387	-0.747	-0.337	-0.134
-0.685	-0.274	0.411	0.479	-0.548	0.069	-0.028	-0.253	-0.473	-0.845	-0.409	-0.16
-0.675	-0.287	0.389	0.481	-0.532	0.051	-0.026	-0.275	-0.54	-0.933	-0.479	-0.184
-0.674	-0.303	0.371	0.488	-0.522	0.034	-0.025	-0.294	-0.61	-1.019	-0.547	-0.209
-0.676	-0.307	0.369	0.492	-0.522	0.031	-0.029	-0.312	-0.687	-1.104	-0.615	-0.233
-0.669	-0.314	0.356	0.491	-0.513	0.021	-0.033	-0.34	-0.767	-1.192	-0.683	-0.26
-0.656	-0.323	0.334	0.489	-0.495	0.005	-0.033	-0.381	-0.863	-1.286	-0.76	-0.29
-0.646	-0.343	0.304	0.494	-0.475	-0.019	-0.022	-0.39	-0.931	-1.359	-0.826	-0.325
-0.643	-0.366	0.278	0.505	-0.461	-0.044	-0.005	-0.389	-0.972	-1.409	-0.872	-0.343
-0.652	-0.388	0.265	0.52	-0.459	-0.061	0.013	-0.41	-1.016	-1.446	-0.904	-0.349
-0.652	-0.406	0.246	0.529	-0.449	-0.08	0.026	-0.44	-1.06	-1.477	-0.93	-0.354
-0.659	-0.433	0.227	0.546	-0.443	-0.102	0.037	-0.464	-1.107	-1.523	-0.977	-0.38
-0.666	-0.449	0.217	0.557	-0.442	-0.115	0.049	-0.48	-1.133	-1.548	-1.014	-0.406
-0.662	-0.459	0.204	0.56	-0.433	-0.127	0.062	-0.484	-1.133	-1.544	-1.024	-0.424
-0.682	-0.486	0.197	0.585	-0.44	-0.144	0.084	-0.511	-1.167	-1.572	-1.075	-0.486
-0.709	-0.498	0.211	0.604	-0.46	-0.143	0.104	-0.548	-1.189	-1.583	-1.109	-0.539
-0.717	-0.51	0.206	0.614	-0.462	-0.151	0.118	-0.556	-1.173	-1.571	-1.118	-0.568
-0.711	-0.531	0.179	0.621	-0.446	-0.175	0.126	-0.573	-1.171	-1.565	-1.129	-0.594
-0.716	-0.54	0.175	0.628	-0.446	-0.182	0.135	-0.585	-1.173	-1.556	-1.128	-0.605
-0.735	-0.541	0.195	0.638	-0.465	-0.172	0.145	-0.609	-1.194	-1.569	-1.147	-0.631
-0.732	-0.526	0.205	0.628	-0.468	-0.16	0.14	-0.666	-1.236	-1.587	-1.161	-0.65
-0.711	-0.509	0.202	0.61	-0.457	-0.153	0.131	-0.738	-1.282	-1.603	-1.173	-0.664
-0.728	-0.521	0.206	0.624	-0.467	-0.157	0.123	-0.799	-1.319	-1.611	-1.183	-0.686
-0.743	-0.54	0.202	0.641	-0.472	-0.169	0.121	-0.839	-1.332	-1.599	-1.173	-0.694
-0.733	-0.558	0.174	0.645	-0.454	-0.192	0.125	-0.89	-1.352	-1.589	-1.166	-0.702
-0.74	-0.603	0.137	0.671	-0.439	-0.232	0.124	-0.953	-1.356	-1.558	-1.139	-0.694
-0.718	-0.649	0.068	0.683	-0.393	-0.29	0.132	-0.972	-1.312	-1.49	-1.075	-0.653
-0.691	-0.708	-0.016	0.699	-0.338	-0.361	0.145	-0.956	-1.262	-1.425	-1.018	-0.622
-0.691	-0.792	-0.101	0.741	-0.294	-0.446	0.175	-0.92	-1.2	-1.359	-0.961	-0.596
-0.696	-0.856	-0.161	0.776	-0.268	-0.508	0.204	-0.904	-1.147	-1.296	-0.911	-0.583
-0.709	-0.913	-0.204	0.811	-0.253	-0.558	0.217	-0.912	-1.109	-1.242	-0.869	-0.572
-0.691	-0.956	-0.266	0.824	-0.212	-0.611	0.212	-0.911	-1.063	-1.19	-0.825	-0.555
-0.669	-0.972	-0.303	0.82	-0.183	-0.637	0.201	-0.899	-1.016	-1.144	-0.788	-0.54
-0.672	-0.983	-0.311	0.828	-0.18	-0.646	0.195	-0.875	-0.96	-1.091	-0.745	-0.513
-0.647	-0.986	-0.338	0.817	-0.155	-0.661	0.173	-0.867	-0.918	-1.052	-0.714	-0.501
-0.605	-0.98	-0.376	0.792	-0.115	-0.677	0.143	-0.865	-0.886	-1.025	-0.697	-0.5
-0.606	-0.972	-0.367	0.789	-0.119	-0.669	0.131	-0.849	-0.847	-0.993	-0.673	-0.492
-0.608	-0.963	-0.355	0.785	-0.127	-0.658	0.114	-0.839	-0.809	-0.963	-0.655	-0.486
-0.585	-0.953	-0.368	0.769	-0.108	-0.66	0.082	-0.837	-0.784	-0.949	-0.649	-0.49
-0.572	-0.936	-0.365	0.753	-0.103	-0.65	0.059	-0.817	-0.761	-0.938	-0.647	-0.493
-0.552	-0.905	-0.353	0.729	-0.1	-0.628	0.041	-0.796	-0.736	-0.926	-0.644	-0.496
-0.53	-0.883	-0.352	0.707	-0.089	-0.617	0.027	-0.778	-0.71	-0.909	-0.63	-0.495
-0.517	-0.868	-0.35	0.692	-0.083	-0.609	0.013	-0.755	-0.685	-0.889	-0.615	-0.485
-0.501	-0.849	-0.347	0.675	-0.077	-0.598	-0.006	-0.734	-0.665	-0.876	-0.603	-0.478
-0.478	-0.827	-0.348	0.653	-0.065	-0.587	-0.032	-0.717	-0.648	-0.862	-0.59	-0.463
-0.464	-0.798	-0.334	0.63	-0.065	-0.566	-0.06	-0.7	-0.627	-0.841	-0.567	-0.436
-0.459	-0.772	-0.314	0.616	-0.072	-0.543	-0.082	-0.675	-0.602	-0.821	-0.548	-0.419
-0.448	-0.749	-0.301	0.599	-0.073	-0.525	-0.102	-0.643	-0.569	-0.795	-0.527	-0.404
-0.433	-0.725	-0.292	0.579	-0.07	-0.508	-0.125	-0.614	-0.532	-0.762	-0.497	-0.38
-0.42	-0.706	-0.285	0.563	-0.067	-0.495	-0.148	-0.58	-0.488	-0.722	-0.461	-0.352
-0.414	-0.694	-0.279	0.553	-0.068	-0.485	-0.164	-0.535	-0.433	-0.671	-0.417	-0.323
-0.405	-0.68	-0.276	0.542	-0.064	-0.478	-0.175	-0.501	-0.396	-0.635	-0.39	-0.308
-0.397	-0.663	-0.266	0.53	-0.066	-0.464	-0.186	-0.468	-0.361	-0.609	-0.367	-0.301
-0.401	-0.651	-0.251	0.526	-0.075	-0.451	-0.201	-0.44	-0.332	-0.589	-0.351	-0.297
-0.414	-0.639	-0.225	0.526	-0.095	-0.431	-0.213	-0.425	-0.313	-0.579	-0.347	-0.303
-0.418	-0.621	-0.203	0.519	-0.108	-0.411	-0.222	-0.407	-0.293	-0.567	-0.341	-0.31
-0.423	-0.607	-0.182	0.515	-0.12	-0.394	-0.224	-0.389	-0.272	-0.551	-0.329	-0.309
-0.443	-0.59	-0.147	0.516	-0.147	-0.368	-0.224	-0.373	-0.253	-0.535	-0.314	-0.299
-0.459	-0.57	-0.111	0.514	-0.174	-0.34	-0.223	-0.36	-0.237	-0.525	-0.307	-0.297
-0.484	-0.553	-0.069	0.518	-0.207	-0.31	-0.212	-0.34	-0.218	-0.517	-0.306	-0.308
-0.507	-0.538	-0.031	0.522	-0.238	-0.284	-0.206	-0.326	-0.201	-0.506	-0.301	-0.312
-0.531	-0.523	0.007	0.527	-0.269	-0.258	-0.205	-0.32	-0.191	-0.499	-0.294	-0.307
-0.548	-0.51	0.038	0.529	-0.293	-0.236	-0.21	-0.319	-0.186	-0.498	-0.294	-0.315
-0.549	-0.491	0.059	0.52	-0.304	-0.216	-0.212	-0.315	-0.181	-0.498	-0.296	-0.325
-0.558	-0.485	0.073	0.521	-0.316	-0.205	-0.208	-0.307	-0.175	-0.499	-0.3	-0.334
-0.583	-0.479	0.103	0.531	-0.343	-0.188	-0.2	-0.295	-0.164	-0.493	-0.297	-0.339
-0.598	-0.454	0.144	0.525	-0.371	-0.154	-0.185	-0.275	-0.144	-0.48	-0.286	-0.336
-0.61	-0.438	0.173	0.524	-0.392	-0.132	-0.186	-0.266	-0.13	-0.467	-0.276	-0.328
-0.615	-0.421	0.193	0.518	-0.404	-0.114	-0.191	-0.258	-0.117	-0.456	-0.266	-0.319
-0.6	-0.405	0.195	0.502	-0.397	-0.104	-0.193	-0.252	-0.111	-0.451	-0.263	-0.318
-0.602	-0.402	0.2	0.501	-0.401	-0.1	-0.194	-0.245	-0.102	-0.442	-0.255	-0.311
-0.624	-0.402	0.223	0.512	-0.423	-0.089	-0.182	-0.229	-0.085	-0.427	-0.239	-0.3
-0.659	-0.402	0.258	0.53	-0.459	-0.071	-0.169	-0.214	-0.07	-0.414	-0.231	-0.294
-0.681	-0.406	0.276	0.543	-0.478	-0.065	-0.166	-0.208	-0.065	-0.413	-0.232	-0.298
-0.691	-0.407	0.284	0.549	-0.487	-0.061	-0.167	-0.203	-0.061	-0.413	-0.234	-0.303
-0.693	-0.394	0.299	0.543	-0.496	-0.047	-0.162	-0.191	-0.049	-0.403	-0.223	-0.292
-0.686	-0.377	0.309	0.532	-0.498	-0.034	-0.165	-0.178	-0.035	-0.392	-0.209	-0.281
-0.694	-0.364	0.33	0.529	-0.512	-0.017	-0.163	-0.171	-0.025	-0.381	-0.2	-0.272
-0.696	-0.356	0.34	0.526	-0.517	-0.009	-0.158	-0.172	-0.021	-0.376	-0.193	-0.265
-0.697	-0.346	0.351	0.521	-0.524	0.003	-0.151	-0.162	-0.012	-0.366	-0.184	-0.255
-0.701	-0.325	0.376	0.512	-0.538	0.025	-0.143	-0.148	0.005	-0.352	-0.171	-0.244
-0.707	-0.316	0.391	0.511	-0.549	0.037	-0.146	-0.145	0.01	-0.351	-0.169	-0.242
-0.714	-0.315	0.399	0.514	-0.556	0.042	-0.145	-0.141	0.01	-0.351	-0.168	-0.238
-0.712	-0.305	0.407	0.508	-0.559	0.051	-0.141	-0.142	0.018	-0.337	-0.153	-0.226
-0.716	-0.294	0.421	0.505	-0.569	0.064	-0.141	-0.139	0.024	-0.329	-0.144	-0.215
-0.721	-0.289	0.431	0.505	-0.576	0.071	-0.141	-0.131	0.03	-0.326	-0.142	-0.211
-0.72	-0.283	0.436	0.501	-0.578	0.076	-0.141	-0.127	0.04	-0.316	-0.134	-0.204
-0.716	-0.274	0.442	0.494	-0.579	0.084	-0.142	-0.127	0.041	-0.312	-0.128	-0.2
-0.711	-0.263	0.448	0.487	-0.58	0.092	-0.141	-0.124	0.046	-0.304	-0.121	-0.191
-0.716	-0.259	0.458	0.487	-0.587	0.1	-0.136	-0.117	0.057	-0.294	-0.11	-0.18
-0.715	-0.252	0.464	0.483	-0.589	0.106	-0.133	-0.111	0.066	-0.283	-0.099	-0.169
-0.707	-0.24	0.466	0.473	-0.587	0.113	-0.13	-0.105	0.073	-0.275	-0.09	-0.162
-0.706	-0.235	0.47	0.47	-0.588	0.117	-0.13	-0.102	0.078	-0.269	-0.085	-0.157
-0.702	-0.231	0.471	0.467	-0.587	0.12	-0.13	-0.098	0.085	-0.259	-0.075	-0.149
-0.693	-0.223	0.469	0.458	-0.581	0.123	-0.13	-0.096	0.088	-0.255	-0.07	-0.145
-0.688	-0.218	0.47	0.454	-0.579	0.126	-0.132	-0.096	0.089	-0.255	-0.07	-0.144
-0.692	-0.217	0.474	0.455	-0.583	0.129	-0.132	-0.097	0.091	-0.251	-0.067	-0.14
-0.7	-0.215	0.484	0.458	-0.592	0.135	-0.132	-0.095	0.095	-0.246	-0.06	-0.133
-0.713	-0.226	0.486	0.469	-0.6	0.13	-0.134	-0.096	0.095	-0.249	-0.067	-0.141
-0.715	-0.228	0.486	0.471	-0.601	0.129	-0.133	-0.096	0.096	-0.249	-0.067	-0.144
-0.701	-0.211	0.489	0.457	-0.596	0.139	-0.131	-0.091	0.101	-0.243	-0.06	-0.136
-0.694	-0.205	0.489	0.45	-0.592	0.141	-0.134	-0.094	0.1	-0.245	-0.063	-0.137
-0.696	-0.206	0.489	0.451	-0.593	0.141	-0.135	-0.095	0.101	-0.243	-0.059	-0.136
-0.701	-0.209	0.491	0.456	-0.596	0.141	-0.134	-0.092	0.102	-0.241	-0.059	-0.135
-0.7	-0.207	0.492	0.454	-0.596	0.142	-0.134	-0.091	0.103	-0.241	-0.059	-0.135
-0.7	-0.208	0.492	0.454	-0.596	0.142	-0.132	-0.089	0.106	-0.241	-0.056	-0.135
-0.702	-0.207	0.494	0.454	-0.598	0.143	-0.13	-0.086	0.109	-0.238	-0.054	-0.133
-0.697	-0.203	0.493	0.45	-0.596	0.145	-0.13	-0.086	0.112	-0.235	-0.052	-0.132
-0.699	-0.203	0.495	0.451	-0.597	0.146	-0.132	-0.086	0.111	-0.235	-0.051	-0.131
-0.692	-0.197	0.495	0.444	-0.594	0.149	-0.134	-0.086	0.111	-0.234	-0.051	-0.132
-0.683	-0.198	0.486	0.441	-0.585	0.144	-0.132	-0.085	0.114	-0.232	-0.051	-0.132
-0.684	-0.2	0.484	0.442	-0.584	0.142	-0.13	-0.082	0.117	-0.228	-0.049	-0.129
-0.686	-0.2	0.486	0.443	-0.587	0.143	-0.131	-0.08	0.118	-0.227	-0.046	-0.129
-0.688	-0.204	0.483	0.446	-0.586	0.14	-0.13	-0.076	0.122	-0.224	-0.043	-0.126
-0.686	-0.201	0.485	0.444	-0.586	0.142	-0.129	-0.074	0.124	-0.222	-0.041	-0.123
-0.686	-0.198	0.489	0.442	-0.588	0.146	-0.133	-0.074	0.125	-0.223	-0.04	-0.122
-0.684	-0.196	0.488	0.44	-0.586	0.146	-0.134	-0.072	0.128	-0.22	-0.038	-0.121
-0.688	-0.193	0.494	0.44	-0.591	0.151	-0.132	-0.07	0.132	-0.217	-0.036	-0.12
-0.69	-0.196	0.494	0.443	-0.592	0.149	-0.132	-0.067	0.135	-0.215	-0.033	-0.118
-0.685	-0.196	0.489	0.441	-0.588	0.147	-0.132	-0.069	0.135	-0.215	-0.033	-0.119
-0.684	-0.189	0.495	0.436	-0.59	0.153	-0.135	-0.07	0.136	-0.212	-0.033	-0.119
-0.684	-0.188	0.496	0.436	-0.59	0.154	-0.139	-0.07	0.135	-0.214	-0.035	-0.123
-0.686	-0.19	0.496	0.438	-0.592	0.153	-0.141	-0.075	0.132	-0.221	-0.04	-0.128
-0.688	-0.188	0.499	0.438	-0.594	0.156	-0.143	-0.073	0.133	-0.22	-0.039	-0.13
-0.683	-0.191	0.492	0.436	-0.588	0.151	-0.142	-0.07	0.137	-0.215	-0.035	-0.129
-0.679	-0.189	0.49	0.433	-0.585	0.151	-0.139	-0.067	0.141	-0.213	-0.034	-0.128
-0.675	-0.188	0.488	0.431	-0.582	0.15	-0.141	-0.064	0.144	-0.209	-0.032	-0.127
-0.668	-0.188	0.481	0.428	-0.575	0.147	-0.138	-0.06	0.15	-0.204	-0.026	-0.124
-0.665	-0.178	0.486	0.421	-0.576	0.153	-0.137	-0.058	0.153	-0.201	-0.025	-0.123
-0.665	-0.178	0.487	0.422	-0.577	0.154	-0.14	-0.056	0.153	-0.2	-0.025	-0.124
-0.667	-0.184	0.483	0.425	-0.576	0.15	-0.139	-0.054	0.156	-0.199	-0.023	-0.123
-0.68	-0.185	0.494	0.433	-0.588	0.154	-0.135	-0.049	0.163	-0.191	-0.018	-0.118
-0.682	-0.179	0.503	0.431	-0.593	0.162	-0.129	-0.04	0.173	-0.18	-0.009	-0.111
-0.683	-0.183	0.5	0.433	-0.592	0.159	-0.129	-0.038	0.174	-0.179	-0.009	-0.112
-0.681	-0.185	0.496	0.433	-0.589	0.155	-0.13	-0.038	0.174	-0.18	-0.01	-0.113
-0.67	-0.183	0.487	0.426	-0.579	0.152	-0.133	-0.04	0.173	-0.18	-0.013	-0.115
-0.683	-0.195	0.488	0.44	-0.586	0.146	-0.134	-0.041	0.174	-0.182	-0.013	-0.117
-0.671	-0.19	0.482	0.43	-0.577	0.146	-0.135	-0.04	0.175	-0.18	-0.012	-0.117
-0.673	-0.182	0.491	0.428	-0.582	0.154	-0.13	-0.034	0.178	-0.176	-0.008	-0.114
-0.707	-0.181	0.524	0.444	-0.616	0.172	-0.116	-0.021	0.193	-0.167	0.004	-0.102
-0.689	-0.173	0.515	0.431	-0.602	0.171	-0.118	-0.025	0.191	-0.167	0.001	-0.107
-0.67	-0.171	0.5	0.42	-0.585	0.165	-0.129	-0.033	0.184	-0.175	-0.007	-0.117
-0.669	-0.172	0.497	0.421	-0.584	0.163	-0.131	-0.036	0.182	-0.179	-0.01	-0.119
-0.668	-0.166	0.503	0.417	-0.586	0.169	-0.127	-0.034	0.185	-0.174	-0.007	-0.118
-0.667	-0.157	0.51	0.411	-0.589	0.177	-0.12	-0.029	0.193	-0.169	-0.001	-0.116
-0.671	-0.162	0.509	0.416	-0.59	0.173	-0.118	-0.027	0.195	-0.168	-0.001	-0.116
-0.698	-0.168	0.53	0.432	-0.614	0.182	-0.112	-0.02	0.201	-0.162	0.005	-0.11
-0.693	-0.167	0.526	0.429	-0.609	0.179	-0.113	-0.021	0.2	-0.162	0.004	-0.113
-0.687	-0.172	0.515	0.43	-0.601	0.172	-0.113	-0.025	0.198	-0.165	-0.001	-0.118
-0.699	-0.177	0.52	0.438	-0.61	0.172	-0.114	-0.025	0.199	-0.167	-0.002	-0.121
-0.694	-0.183	0.51	0.439	-0.602	0.164	-0.114	-0.024	0.199	-0.166	-0.002	-0.122
-0.703	-0.192	0.511	0.448	-0.607	0.16	-0.109	-0.021	0.203	-0.163	0	-0.12
-0.706	-0.193	0.512	0.45	-0.609	0.16	-0.106	-0.019	0.203	-0.163	0.001	-0.121
-0.695	-0.183	0.512	0.439	-0.604	0.165	-0.1	-0.011	0.212	-0.151	0.008	-0.115
-0.697	-0.176	0.52	0.436	-0.609	0.172	-0.099	-0.009	0.216	-0.145	0.012	-0.111
-0.703	-0.176	0.526	0.44	-0.615	0.175	-0.099	-0.013	0.213	-0.153	0.005	-0.118
-0.71	-0.177	0.533	0.444	-0.622	0.178	-0.099	-0.013	0.215	-0.156	0.003	-0.122
-0.717	-0.175	0.542	0.446	-0.629	0.183	-0.096	-0.009	0.215	-0.153	0.004	-0.121
-0.719	-0.178	0.541	0.449	-0.629	0.181	-0.093	-0.007	0.223	-0.147	0.011	-0.117
-0.712	-0.183	0.529	0.448	-0.621	0.173	-0.092	-0.009	0.223	-0.147	0.011	-0.118
-0.705	-0.178	0.526	0.442	-0.616	0.174	-0.092	-0.008	0.221	-0.148	0.009	-0.12
-0.707	-0.174	0.532	0.441	-0.62	0.178	-0.097	-0.009	0.223	-0.146	0.01	-0.121
-0.711	-0.177	0.533	0.444	-0.622	0.178	-0.101	-0.017	0.216	-0.152	0.003	-0.128
-0.717	-0.181	0.535	0.449	-0.626	0.177	-0.103	-0.022	0.212	-0.157	-0.002	-0.132
-0.722	-0.176	0.545	0.449	-0.633	0.184	-0.104	-0.017	0.218	-0.151	0.003	-0.127
-0.721	-0.169	0.551	0.445	-0.636	0.192	-0.099	-0.009	0.225	-0.143	0.009	-0.122
-0.728	-0.176	0.551	0.453	-0.64	0.187	-0.099	-0.008	0.226	-0.144	0.007	-0.125
-0.721	-0.175	0.546	0.448	-0.633	0.185	-0.103	-0.004	0.235	-0.138	0.013	-0.122
-0.712	-0.173	0.539	0.443	-0.625	0.183	-0.11	-0.005	0.232	-0.14	0.009	-0.124
-0.72	-0.179	0.54	0.45	-0.63	0.18	-0.113	-0.009	0.227	-0.144	0.003	-0.131
-0.715	-0.178	0.536	0.447	-0.625	0.179	-0.11	-0.004	0.234	-0.137	0.011	-0.127
-0.736	-0.178	0.557	0.457	-0.646	0.19	-0.102	0.009	0.248	-0.123	0.024	-0.115
-0.745	-0.18	0.564	0.463	-0.654	0.192	-0.099	0.016	0.257	-0.117	0.026	-0.115
-0.727	-0.189	0.538	0.458	-0.632	0.174	-0.103	0.017	0.259	-0.116	0.027	-0.114
-0.739	-0.188	0.55	0.463	-0.644	0.181	-0.1	0.024	0.267	-0.106	0.036	-0.102
-0.727	-0.176	0.549	0.452	-0.638	0.186	-0.104	0.016	0.264	-0.111	0.032	-0.107
-0.723	-0.175	0.547	0.449	-0.635	0.186	-0.113	0.015	0.266	-0.113	0.031	-0.111
-0.739	-0.18	0.558	0.46	-0.648	0.189	-0.115	0.019	0.266	-0.111	0.032	-0.113
-0.742	-0.178	0.564	0.46	-0.653	0.193	-0.11	0.026	0.273	-0.107	0.035	-0.108
-0.767	-0.176	0.591	0.471	-0.679	0.207	-0.1	0.04	0.288	-0.094	0.048	-0.098
-0.781	-0.177	0.604	0.479	-0.693	0.213	-0.098	0.041	0.289	-0.092	0.048	-0.099
-0.773	-0.172	0.601	0.473	-0.687	0.214	-0.107	0.033	0.283	-0.1	0.042	-0.107
-0.768	-0.17	0.598	0.469	-0.683	0.214	-0.116	0.028	0.281	-0.105	0.036	-0.113
-0.769	-0.168	0.601	0.469	-0.685	0.216	-0.115	0.028	0.281	-0.107	0.033	-0.117
-0.757	-0.166	0.592	0.462	-0.674	0.213	-0.12	0.026	0.279	-0.108	0.029	-0.121
-0.726	-0.168	0.558	0.447	-0.642	0.196	-0.129	0.02	0.274	-0.115	0.021	-0.131
-0.709	-0.17	0.538	0.439	-0.624	0.184	-0.132	0.019	0.272	-0.117	0.019	-0.134
-0.723	-0.169	0.554	0.446	-0.638	0.193	-0.123	0.029	0.282	-0.106	0.029	-0.124
-0.751	-0.167	0.584	0.459	-0.667	0.208	-0.116	0.038	0.294	-0.093	0.041	-0.116
-0.749	-0.161	0.588	0.455	-0.668	0.213	-0.118	0.04	0.296	-0.092	0.043	-0.116
-0.734	-0.16	0.573	0.447	-0.653	0.206	-0.123	0.036	0.294	-0.097	0.037	-0.121
-0.744	-0.166	0.578	0.455	-0.661	0.206	-0.119	0.042	0.3	-0.091	0.042	-0.118
-0.749	-0.165	0.584	0.457	-0.666	0.209	-0.116	0.05	0.304	-0.086	0.046	-0.115
-0.741	-0.168	0.573	0.454	-0.656	0.203	-0.121	0.048	0.305	-0.088	0.043	-0.118
-0.731	-0.166	0.566	0.449	-0.648	0.201	-0.126	0.046	0.305	-0.088	0.042	-0.12
-0.728	-0.16	0.568	0.444	-0.647	0.204	-0.129	0.047	0.306	-0.088	0.041	-0.123
-0.726	-0.161	0.565	0.443	-0.645	0.202	-0.132	0.047	0.307	-0.088	0.042	-0.123
-0.726	-0.158	0.568	0.442	-0.646	0.204	-0.133	0.044	0.307	-0.089	0.042	-0.122
-0.743	-0.157	0.587	0.45	-0.665	0.215	-0.131	0.049	0.314	-0.084	0.044	-0.123
-0.753	-0.151	0.602	0.453	-0.677	0.226	-0.129	0.054	0.319	-0.077	0.05	-0.119
-0.753	-0.148	0.606	0.451	-0.679	0.229	-0.13	0.055	0.319	-0.079	0.048	-0.12
-0.764	-0.147	0.617	0.456	-0.691	0.234	-0.129	0.056	0.322	-0.077	0.05	-0.119
-0.766	-0.147	0.618	0.457	-0.692	0.235	-0.133	0.055	0.323	-0.076	0.052	-0.119
-0.756	-0.151	0.606	0.454	-0.681	0.227	-0.136	0.051	0.319	-0.084	0.044	-0.123
-0.747	-0.149	0.598	0.448	-0.672	0.225	-0.138	0.049	0.317	-0.086	0.041	-0.127
-0.744	-0.145	0.598	0.444	-0.67	0.227	-0.139	0.05	0.325	-0.08	0.046	-0.126
-0.746	-0.142	0.603	0.444	-0.674	0.231	-0.137	0.051	0.322	-0.081	0.045	-0.126
-0.746	-0.143	0.602	0.445	-0.673	0.229	-0.138	0.052	0.324	-0.08	0.047	-0.125
-0.744	-0.143	0.601	0.444	-0.672	0.229	-0.141	0.05	0.326	-0.077	0.05	-0.126
-0.734	-0.139	0.596	0.436	-0.664	0.229	-0.149	0.045	0.319	-0.079	0.043	-0.131
-0.733	-0.138	0.596	0.435	-0.664	0.229	-0.148	0.049	0.323	-0.079	0.043	-0.131
-0.736	-0.138	0.599	0.436	-0.667	0.231	-0.147	0.051	0.326	-0.077	0.045	-0.13
-0.736	-0.142	0.595	0.439	-0.665	0.227	-0.145	0.051	0.327	-0.077	0.046	-0.13
-0.747	-0.148	0.599	0.448	-0.672	0.226	-0.142	0.053	0.329	-0.075	0.049	-0.129
-0.739	-0.148	0.59	0.444	-0.664	0.221	-0.147	0.05	0.328	-0.075	0.046	-0.13
-0.737	-0.146	0.591	0.442	-0.663	0.222	-0.149	0.048	0.327	-0.077	0.046	-0.125
-0.73	-0.144	0.587	0.437	-0.658	0.222	-0.151	0.046	0.325	-0.082	0.043	-0.132
-0.714	-0.14	0.574	0.427	-0.643	0.217	-0.153	0.046	0.327	-0.081	0.042	-0.137
-0.721	-0.136	0.585	0.428	-0.653	0.225	-0.15	0.049	0.329	-0.076	0.044	-0.134
-0.735	-0.139	0.596	0.437	-0.665	0.229	-0.149	0.047	0.322	-0.083	0.04	-0.137
-0.746	-0.14	0.606	0.443	-0.675	0.233	-0.148	0.051	0.324	-0.084	0.041	-0.136
-0.741	-0.13	0.612	0.435	-0.676	0.241	-0.149	0.045	0.324	-0.081	0.042	-0.136
-0.736	-0.125	0.611	0.43	-0.673	0.242	-0.154	0.041	0.319	-0.085	0.039	-0.136
-0.733	-0.128	0.606	0.43	-0.669	0.239	-0.157	0.04	0.314	-0.093	0.032	-0.142
-0.733	-0.132	0.602	0.432	-0.667	0.235	-0.154	0.038	0.312	-0.097	0.027	-0.148
-0.738	-0.131	0.607	0.434	-0.672	0.238	-0.152	0.04	0.313	-0.097	0.03	-0.145
-0.731	-0.135	0.597	0.432	-0.664	0.231	-0.156	0.036	0.306	-0.1	0.026	-0.145
-0.732	-0.141	0.591	0.436	-0.661	0.225	-0.154	0.042	0.311	-0.095	0.029	-0.142
-0.732	-0.135	0.598	0.433	-0.664	0.232	-0.155	0.041	0.314	-0.096	0.03	-0.141
-0.753	-0.133	0.62	0.443	-0.686	0.243	-0.15	0.045	0.315	-0.091	0.034	-0.135
-0.79	-0.141	0.649	0.465	-0.72	0.254	-0.135	0.058	0.326	-0.081	0.045	-0.123
-0.768	-0.136	0.632	0.452	-0.701	0.248	-0.136	0.056	0.321	-0.086	0.042	-0.124
-0.748	-0.132	0.616	0.44	-0.681	0.241	-0.143	0.047	0.312	-0.092	0.037	-0.127
-0.746	-0.138	0.609	0.442	-0.677	0.235	-0.146	0.046	0.312	-0.096	0.033	-0.132
-0.745	-0.143	0.602	0.444	-0.673	0.23	-0.148	0.047	0.311	-0.096	0.033	-0.13
-0.758	-0.153	0.606	0.456	-0.682	0.227	-0.152	0.04	0.304	-0.101	0.029	-0.133
-0.75	-0.155	0.595	0.453	-0.672	0.22	-0.15	0.04	0.301	-0.103	0.026	-0.135
-0.754	-0.151	0.603	0.453	-0.678	0.226	-0.146	0.044	0.303	-0.1	0.028	-0.13
-0.756	-0.16	0.597	0.458	-0.676	0.218	-0.149	0.036	0.294	-0.108	0.021	-0.136
-0.75	-0.172	0.579	0.461	-0.664	0.203	-0.155	0.03	0.285	-0.117	0.012	-0.142
-0.757	-0.166	0.592	0.462	-0.675	0.213	-0.159	0.027	0.28	-0.12	0.011	-0.142
-0.73	-0.145	0.585	0.438	-0.657	0.22	-0.162	0.023	0.275	-0.126	0.009	-0.144
-0.717	-0.131	0.585	0.424	-0.65	0.227	-0.162	0.022	0.275	-0.128	0.006	-0.143
-0.715	-0.127	0.588	0.42	-0.651	0.231	-0.164	0.021	0.271	-0.129	0.007	-0.141
-0.707	-0.133	0.574	0.42	-0.64	0.221	-0.165	0.017	0.266	-0.132	0.004	-0.141
-0.71	-0.134	0.576	0.422	-0.643	0.221	-0.16	0.021	0.268	-0.132	0.006	-0.138
-0.707	-0.132	0.576	0.419	-0.641	0.223	-0.158	0.021	0.266	-0.132	0.005	-0.137
-0.714	-0.141	0.574	0.427	-0.643	0.216	-0.16	0.018	0.26	-0.136	0.003	-0.139
-0.718	-0.152	0.566	0.435	-0.641	0.206	-0.159	0.014	0.253	-0.141	-0.002	-0.14
-0.725	-0.158	0.567	0.441	-0.645	0.204	-0.154	0.014	0.253	-0.142	-0.004	-0.14
-0.72	-0.155	0.564	0.438	-0.642	0.204	-0.155	0.013	0.249	-0.145	-0.005	-0.14
-0.699	-0.155	0.543	0.427	-0.621	0.194	-0.153	0.013	0.243	-0.151	-0.009	-0.141
-0.704	-0.162	0.543	0.432	-0.624	0.191	-0.147	0.007	0.235	-0.157	-0.015	-0.144
-0.719	-0.167	0.552	0.443	-0.635	0.194	-0.146	0.003	0.234	-0.156	-0.013	-0.141
-0.722	-0.164	0.558	0.443	-0.64	0.197	-0.145	0.01	0.238	-0.15	-0.006	-0.132
-0.725	-0.16	0.565	0.442	-0.644	0.203	-0.139	0.008	0.234	-0.152	-0.009	-0.131
-0.722	-0.162	0.56	0.442	-0.641	0.199	-0.14	0.001	0.227	-0.159	-0.015	-0.135
-0.694	-0.162	0.532	0.427	-0.613	0.185	-0.149	-0.011	0.212	-0.172	-0.027	-0.146
-0.685	-0.164	0.522	0.424	-0.604	0.179	-0.147	-0.011	0.208	-0.174	-0.028	-0.145
-0.707	-0.174	0.532	0.441	-0.62	0.179	-0.14	-0.006	0.214	-0.169	-0.025	-0.139
-0.709	-0.174	0.534	0.442	-0.622	0.18	-0.141	-0.015	0.203	-0.175	-0.029	-0.142
-0.704	-0.169	0.534	0.436	-0.619	0.182	-0.139	-0.018	0.194	-0.181	-0.033	-0.143
-0.71	-0.169	0.541	0.44	-0.626	0.186	-0.132	-0.015	0.196	-0.187	-0.038	-0.144
-0.731	-0.171	0.56	0.451	-0.646	0.195	-0.131	-0.013	0.196	-0.186	-0.037	-0.141
-0.728	-0.172	0.555	0.451	-0.641	0.192	-0.131	-0.017	0.192	-0.186	-0.037	-0.141
-0.708	-0.174	0.533	0.442	-0.621	0.179	-0.133	-0.024	0.182	-0.195	-0.045	-0.146
-0.696	-0.178	0.517	0.437	-0.607	0.17	-0.135	-0.029	0.174	-0.202	-0.051	-0.151
-0.673	-0.178	0.494	0.426	-0.584	0.158	-0.139	-0.038	0.166	-0.21	-0.058	-0.155
-0.659	-0.173	0.485	0.416	-0.573	0.157	-0.141	-0.042	0.161	-0.216	-0.061	-0.159
-0.664	-0.168	0.496	0.416	-0.581	0.165	-0.136	-0.041	0.162	-0.213	-0.059	-0.153
-0.665	-0.177	0.488	0.421	-0.577	0.155	-0.133	-0.041	0.159	-0.213	-0.06	-0.151
-0.676	-0.185	0.491	0.43	-0.584	0.153	-0.128	-0.036	0.161	-0.211	-0.058	-0.148
-0.698	-0.196	0.501	0.447	-0.6	0.153	-0.125	-0.035	0.16	-0.211	-0.059	-0.148
-0.697	-0.205	0.492	0.451	-0.595	0.143	-0.123	-0.036	0.157	-0.213	-0.059	-0.148
-0.702	-0.201	0.501	0.451	-0.601	0.15	-0.117	-0.036	0.159	-0.213	-0.057	-0.141
-0.709	-0.201	0.508	0.455	-0.609	0.154	-0.117	-0.038	0.152	-0.218	-0.062	-0.144
-0.704	-0.201	0.502	0.452	-0.603	0.151	-0.117	-0.042	0.148	-0.224	-0.066	-0.148
-0.694	-0.201	0.493	0.448	-0.594	0.146	-0.117	-0.045	0.145	-0.227	-0.069	-0.147
-0.686	-0.2	0.486	0.443	-0.586	0.143	-0.115	-0.043	0.143	-0.229	-0.068	-0.147
-0.692	-0.202	0.49	0.447	-0.591	0.144	-0.115	-0.045	0.142	-0.232	-0.07	-0.149
-0.691	-0.2	0.491	0.446	-0.592	0.145	-0.117	-0.046	0.139	-0.234	-0.072	-0.15
-0.674	-0.197	0.477	0.435	-0.576	0.14	-0.118	-0.049	0.136	-0.236	-0.074	-0.152
-0.661	-0.198	0.464	0.429	-0.562	0.133	-0.12	-0.053	0.133	-0.239	-0.079	-0.154
-0.67	-0.194	0.476	0.431	-0.573	0.141	-0.117	-0.05	0.132	-0.24	-0.078	-0.152
-0.681	-0.192	0.489	0.437	-0.586	0.149	-0.112	-0.046	0.134	-0.24	-0.075	-0.149
-0.686	-0.198	0.488	0.442	-0.587	0.145	-0.109	-0.045	0.133	-0.24	-0.076	-0.15
-0.68	-0.203	0.477	0.442	-0.579	0.138	-0.112	-0.049	0.128	-0.243	-0.079	-0.154
-0.665	-0.206	0.46	0.435	-0.562	0.127	-0.116	-0.051	0.124	-0.246	-0.083	-0.155
-0.665	-0.209	0.456	0.438	-0.56	0.123	-0.117	-0.052	0.121	-0.25	-0.087	-0.157
-0.671	-0.216	0.455	0.444	-0.564	0.119	-0.115	-0.051	0.121	-0.25	-0.086	-0.157
-0.678	-0.227	0.453	0.453	-0.566	0.113	-0.11	-0.051	0.12	-0.252	-0.089	-0.158
-0.688	-0.232	0.456	0.46	-0.572	0.112	-0.106	-0.047	0.122	-0.249	-0.086	-0.155
-0.686	-0.233	0.454	0.46	-0.571	0.111	-0.104	-0.049	0.12	-0.251	-0.088	-0.158
-0.688	-0.234	0.454	0.461	-0.571	0.11	-0.104	-0.048	0.118	-0.254	-0.091	-0.162
-0.682	-0.233	0.45	0.458	-0.566	0.109	-0.104	-0.045	0.119	-0.253	-0.09	-0.16
-0.684	-0.234	0.45	0.459	-0.567	0.108	-0.102	-0.045	0.117	-0.253	-0.091	-0.158
-0.694	-0.238	0.456	0.466	-0.575	0.108	-0.102	-0.043	0.114	-0.256	-0.091	-0.159
-0.681	-0.238	0.444	0.46	-0.562	0.103	-0.107	-0.049	0.113	-0.262	-0.098	-0.163
-0.695	-0.24	0.455	0.468	-0.575	0.107	-0.1	-0.044	0.116	-0.257	-0.089	-0.154
-0.704	-0.242	0.461	0.473	-0.583	0.11	-0.1	-0.044	0.11	-0.261	-0.09	-0.154
-0.685	-0.241	0.445	0.463	-0.565	0.102	-0.109	-0.055	0.101	-0.272	-0.105	-0.168
-0.69	-0.24	0.449	0.465	-0.57	0.104	-0.111	-0.06	0.097	-0.277	-0.107	-0.17
-0.699	-0.248	0.451	0.473	-0.575	0.102	-0.113	-0.065	0.091	-0.281	-0.108	-0.17
-0.706	-0.254	0.453	0.479	-0.58	0.1	-0.114	-0.07	0.086	-0.285	-0.112	-0.174
-0.705	-0.25	0.455	0.477	-0.58	0.102	-0.112	-0.074	0.082	-0.29	-0.114	-0.175
-0.706	-0.25	0.456	0.477	-0.581	0.103	-0.11	-0.075	0.081	-0.29	-0.114	-0.174
-0.715	-0.255	0.46	0.485	-0.588	0.102	-0.108	-0.079	0.08	-0.291	-0.115	-0.175
-0.714	-0.254	0.46	0.484	-0.587	0.103	-0.107	-0.078	0.08	-0.289	-0.114	-0.173
-0.708	-0.245	0.462	0.476	-0.585	0.108	-0.106	-0.08	0.079	-0.288	-0.113	-0.172
-0.707	-0.245	0.462	0.475	-0.584	0.108	-0.104	-0.08	0.079	-0.288	-0.114	-0.172
-0.71	-0.246	0.465	0.478	-0.588	0.109	-0.101	-0.08	0.079	-0.288	-0.113	-0.17
-0.71	-0.246	0.464	0.478	-0.587	0.108	-0.1	-0.079	0.078	-0.286	-0.111	-0.169
-0.701	-0.251	0.451	0.475	-0.576	0.1	-0.101	-0.081	0.076	-0.288	-0.112	-0.17
-0.692	-0.249	0.443	0.47	-0.567	0.097	-0.106	-0.086	0.074	-0.292	-0.114	-0.172
-0.691	-0.249	0.441	0.47	-0.566	0.096	-0.11	-0.088	0.07	-0.295	-0.116	-0.174
-0.698	-0.251	0.448	0.474	-0.573	0.099	-0.11	-0.09	0.068	-0.295	-0.114	-0.174
-0.702	-0.248	0.454	0.475	-0.578	0.103	-0.11	-0.089	0.069	-0.292	-0.111	-0.172
-0.707	-0.249	0.458	0.478	-0.583	0.104	-0.105	-0.09	0.07	-0.29	-0.11	-0.171
-0.716	-0.251	0.465	0.483	-0.591	0.107	-0.102	-0.086	0.075	-0.286	-0.104	-0.164
-0.72	-0.246	0.473	0.483	-0.597	0.114	-0.099	-0.084	0.079	-0.283	-0.102	-0.16
-0.72	-0.245	0.474	0.482	-0.597	0.115	-0.101	-0.087	0.077	-0.286	-0.105	-0.164
-0.701	-0.241	0.46	0.47	-0.58	0.11	-0.11	-0.095	0.07	-0.294	-0.111	-0.168
-0.686	-0.24	0.447	0.463	-0.567	0.103	-0.115	-0.103	0.062	-0.299	-0.117	-0.172
-0.671	-0.242	0.429	0.457	-0.55	0.093	-0.12	-0.112	0.051	-0.309	-0.127	-0.181
-0.663	-0.246	0.416	0.455	-0.539	0.085	-0.121	-0.112	0.049	-0.31	-0.129	-0.182
-0.68	-0.254	0.426	0.467	-0.553	0.086	-0.114	-0.104	0.058	-0.3	-0.12	-0.174
-0.708	-0.253	0.455	0.48	-0.582	0.101	-0.103	-0.095	0.069	-0.291	-0.111	-0.166
-0.728	-0.258	0.47	0.492	-0.599	0.106	-0.098	-0.091	0.072	-0.287	-0.106	-0.162
-0.72	-0.257	0.463	0.488	-0.591	0.103	-0.099	-0.097	0.067	-0.294	-0.113	-0.167
-0.709	-0.251	0.459	0.48	-0.584	0.104	-0.1	-0.098	0.066	-0.289	-0.109	-0.166
-0.692	-0.249	0.442	0.47	-0.567	0.097	-0.104	-0.103	0.06	-0.294	-0.113	-0.168
-0.68	-0.255	0.426	0.468	-0.553	0.086	-0.102	-0.103	0.058	-0.301	-0.121	-0.173
-0.68	-0.254	0.426	0.467	-0.553	0.086	-0.093	-0.098	0.062	-0.296	-0.116	-0.169
-0.684	-0.256	0.428	0.47	-0.556	0.086	-0.091	-0.096	0.066	-0.292	-0.115	-0.164
-0.68	-0.256	0.425	0.468	-0.552	0.085	-0.095	-0.097	0.064	-0.292	-0.114	-0.166
-0.666	-0.243	0.422	0.455	-0.544	0.089	-0.097	-0.102	0.06	-0.297	-0.117	-0.171
-0.663	-0.238	0.424	0.451	-0.544	0.093	-0.096	-0.102	0.06	-0.297	-0.12	-0.173
-0.672	-0.235	0.436	0.454	-0.554	0.101	-0.094	-0.102	0.061	-0.295	-0.116	-0.168
-0.678	-0.238	0.44	0.459	-0.559	0.101	-0.093	-0.1	0.061	-0.296	-0.116	-0.168
-0.669	-0.241	0.428	0.456	-0.548	0.093	-0.097	-0.103	0.057	-0.301	-0.122	-0.173
-0.657	-0.238	0.419	0.448	-0.538	0.09	-0.101	-0.113	0.048	-0.307	-0.128	-0.177
-0.658	-0.24	0.418	0.45	-0.538	0.089	-0.102	-0.112	0.046	-0.31	-0.129	-0.177
-0.664	-0.245	0.418	0.455	-0.541	0.086	-0.105	-0.115	0.049	-0.308	-0.129	-0.178
-0.657	-0.243	0.414	0.451	-0.536	0.086	-0.107	-0.118	0.045	-0.309	-0.131	-0.18
-0.657	-0.24	0.417	0.449	-0.537	0.088	-0.104	-0.117	0.043	-0.311	-0.13	-0.18
-0.67	-0.244	0.425	0.458	-0.547	0.09	-0.102	-0.118	0.043	-0.311	-0.13	-0.178
-0.692	-0.247	0.445	0.47	-0.569	0.099	-0.097	-0.115	0.046	-0.305	-0.123	-0.172
-0.694	-0.258	0.436	0.475	-0.565	0.089	-0.098	-0.116	0.046	-0.306	-0.123	-0.174
-0.683	-0.263	0.42	0.472	-0.551	0.079	-0.105	-0.118	0.045	-0.309	-0.127	-0.177
-0.658	-0.257	0.403	0.458	-0.53	0.073	-0.111	-0.121	0.043	-0.309	-0.128	-0.179
-0.651	-0.259	0.393	0.455	-0.521	0.067	-0.11	-0.12	0.04	-0.31	-0.128	-0.178
-0.678	-0.261	0.418	0.469	-0.548	0.079	-0.101	-0.112	0.049	-0.3	-0.118	-0.17
-0.69	-0.259	0.431	0.474	-0.56	0.086	-0.098	-0.108	0.053	-0.295	-0.114	-0.166
-0.692	-0.261	0.431	0.476	-0.561	0.085	-0.102	-0.109	0.053	-0.298	-0.115	-0.166
-0.683	-0.26	0.424	0.471	-0.553	0.082	-0.107	-0.117	0.048	-0.301	-0.118	-0.17
-0.695	-0.264	0.431	0.479	-0.563	0.084	-0.11	-0.119	0.046	-0.302	-0.12	-0.17
-0.691	-0.27	0.42	0.48	-0.555	0.075	-0.117	-0.123	0.041	-0.306	-0.122	-0.174
-0.662	-0.264	0.399	0.463	-0.531	0.068	-0.12	-0.126	0.037	-0.314	-0.128	-0.181
-0.672	-0.255	0.417	0.463	-0.544	0.082	-0.112	-0.117	0.045	-0.306	-0.121	-0.173
-0.683	-0.26	0.423	0.471	-0.553	0.082	-0.114	-0.118	0.046	-0.304	-0.118	-0.17
-0.67	-0.258	0.412	0.464	-0.541	0.077	-0.123	-0.123	0.044	-0.307	-0.12	-0.173
-0.669	-0.25	0.419	0.46	-0.544	0.085	-0.127	-0.128	0.037	-0.31	-0.123	-0.176
-0.684	-0.257	0.428	0.47	-0.556	0.086	-0.132	-0.132	0.032	-0.315	-0.129	-0.179
-0.686	-0.259	0.428	0.472	-0.557	0.085	-0.134	-0.131	0.032	-0.314	-0.128	-0.177
-0.686	-0.26	0.427	0.473	-0.557	0.084	-0.136	-0.13	0.034	-0.313	-0.127	-0.175
-0.695	-0.266	0.429	0.48	-0.562	0.082	-0.134	-0.128	0.036	-0.308	-0.122	-0.17
-0.697	-0.274	0.423	0.485	-0.56	0.074	-0.133	-0.13	0.032	-0.31	-0.123	-0.172
-0.697	-0.274	0.423	0.485	-0.56	0.074	-0.135	-0.128	0.033	-0.311	-0.126	-0.176
-0.696	-0.27	0.426	0.483	-0.561	0.078	-0.138	-0.128	0.032	-0.311	-0.124	-0.173
-0.688	-0.268	0.42	0.478	-0.554	0.076	-0.139	-0.129	0.032	-0.309	-0.123	-0.172
-0.685	-0.269	0.416	0.476	-0.55	0.074	-0.134	-0.127	0.035	-0.306	-0.119	-0.169
-0.687	-0.269	0.418	0.478	-0.553	0.075	-0.132	-0.127	0.032	-0.311	-0.121	-0.171
-0.683	-0.261	0.423	0.471	-0.553	0.081	-0.13	-0.125	0.034	-0.31	-0.121	-0.17
-0.681	-0.267	0.414	0.474	-0.548	0.074	-0.129	-0.123	0.036	-0.305	-0.118	-0.168
-0.687	-0.271	0.415	0.479	-0.551	0.072	-0.133	-0.124	0.036	-0.304	-0.118	-0.172
-0.687	-0.262	0.425	0.474	-0.556	0.082	-0.133	-0.13	0.032	-0.303	-0.116	-0.166
-0.683	-0.258	0.426	0.47	-0.554	0.084	-0.133	-0.133	0.026	-0.31	-0.121	-0.169
-0.689	-0.262	0.427	0.475	-0.558	0.083	-0.133	-0.134	0.022	-0.32	-0.131	-0.177
-0.687	-0.261	0.426	0.474	-0.556	0.083	-0.13	-0.132	0.022	-0.322	-0.132	-0.177
-0.681	-0.261	0.421	0.471	-0.551	0.081	-0.132	-0.134	0.023	-0.321	-0.131	-0.178
-0.68	-0.263	0.417	0.471	-0.548	0.077	-0.136	-0.137	0.02	-0.323	-0.131	-0.178
-0.674	-0.257	0.418	0.466	-0.546	0.081	-0.14	-0.137	0.018	-0.325	-0.132	-0.179
-0.672	-0.254	0.419	0.463	-0.546	0.083	-0.142	-0.138	0.018	-0.325	-0.131	-0.18
-0.674	-0.253	0.421	0.464	-0.548	0.084	-0.14	-0.138	0.02	-0.32	-0.129	-0.179
-0.682	-0.255	0.427	0.469	-0.554	0.086	-0.138	-0.138	0.021	-0.321	-0.133	-0.179
-0.689	-0.264	0.426	0.476	-0.557	0.082	-0.142	-0.139	0.015	-0.329	-0.14	-0.186
-0.692	-0.272	0.421	0.481	-0.556	0.074	-0.143	-0.142	0.012	-0.332	-0.143	-0.191
-0.694	-0.27	0.424	0.481	-0.558	0.077	-0.138	-0.138	0.017	-0.324	-0.135	-0.183
-0.692	-0.258	0.434	0.474	-0.563	0.088	-0.139	-0.136	0.019	-0.322	-0.133	-0.181
-0.689	-0.254	0.434	0.471	-0.561	0.09	-0.141	-0.138	0.015	-0.324	-0.138	-0.182
-0.691	-0.259	0.432	0.475	-0.561	0.086	-0.138	-0.136	0.014	-0.324	-0.137	-0.184
-0.698	-0.267	0.43	0.482	-0.564	0.082	-0.135	-0.132	0.015	-0.324	-0.137	-0.183
-0.701	-0.272	0.428	0.486	-0.565	0.079	-0.128	-0.127	0.02	-0.32	-0.134	-0.18
-0.697	-0.266	0.431	0.481	-0.564	0.083	-0.128	-0.127	0.021	-0.322	-0.133	-0.181
-0.691	-0.262	0.429	0.476	-0.56	0.084	-0.132	-0.129	0.019	-0.324	-0.134	-0.183
-0.694	-0.258	0.435	0.476	-0.565	0.089	-0.129	-0.126	0.022	-0.321	-0.134	-0.181
-0.696	-0.26	0.436	0.477	-0.566	0.088	-0.128	-0.124	0.023	-0.318	-0.133	-0.178
-0.694	-0.263	0.43	0.478	-0.562	0.084	-0.131	-0.123	0.025	-0.318	-0.13	-0.177
-0.684	-0.26	0.425	0.472	-0.555	0.083	-0.129	-0.122	0.026	-0.315	-0.128	-0.176
-0.677	-0.258	0.419	0.468	-0.548	0.081	-0.13	-0.122	0.025	-0.319	-0.13	-0.178
-0.672	-0.253	0.419	0.463	-0.546	0.084	-0.129	-0.124	0.027	-0.318	-0.131	-0.179
-0.672	-0.245	0.427	0.459	-0.55	0.091	-0.132	-0.127	0.028	-0.315	-0.128	-0.178
-0.673	-0.248	0.425	0.461	-0.549	0.088	-0.14	-0.129	0.019	-0.324	-0.135	-0.182
-0.668	-0.248	0.42	0.459	-0.544	0.086	-0.14	-0.13	0.015	-0.327	-0.137	-0.185
-0.674	-0.248	0.426	0.462	-0.55	0.088	-0.138	-0.13	0.019	-0.325	-0.134	-0.181
-0.673	-0.251	0.423	0.462	-0.548	0.086	-0.134	-0.128	0.021	-0.324	-0.133	-0.181
-0.679	-0.254	0.426	0.467	-0.552	0.086	-0.136	-0.128	0.021	-0.322	-0.131	-0.181
-0.69	-0.254	0.436	0.472	-0.564	0.091	-0.131	-0.126	0.027	-0.32	-0.128	-0.176
-0.689	-0.248	0.44	0.469	-0.565	0.096	-0.126	-0.124	0.024	-0.322	-0.131	-0.177
-0.696	-0.253	0.443	0.473	-0.569	0.096	-0.129	-0.129	0.017	-0.328	-0.139	-0.185
-0.701	-0.26	0.441	0.48	-0.571	0.09	-0.129	-0.126	0.021	-0.323	-0.136	-0.183
-0.7	-0.262	0.438	0.48	-0.569	0.088	-0.126	-0.122	0.025	-0.32	-0.131	-0.177
-0.7	-0.261	0.439	0.48	-0.569	0.089	-0.119	-0.121	0.027	-0.319	-0.131	-0.175
-0.703	-0.268	0.434	0.485	-0.568	0.084	-0.115	-0.118	0.028	-0.317	-0.13	-0.175
-0.699	-0.266	0.433	0.482	-0.567	0.084	-0.118	-0.121	0.029	-0.317	-0.128	-0.174
-0.69	-0.251	0.439	0.47	-0.564	0.093	-0.117	-0.121	0.032	-0.314	-0.126	-0.171
-0.693	-0.258	0.435	0.475	-0.564	0.088	-0.116	-0.121	0.03	-0.317	-0.129	-0.175
-0.706	-0.27	0.436	0.488	-0.571	0.084	-0.122	-0.122	0.029	-0.32	-0.131	-0.177
-0.7	-0.266	0.434	0.483	-0.567	0.085	-0.122	-0.12	0.029	-0.319	-0.131	-0.176
-0.691	-0.26	0.431	0.475	-0.561	0.086	-0.118	-0.12	0.03	-0.318	-0.13	-0.175
-0.693	-0.255	0.438	0.474	-0.566	0.091	-0.118	-0.121	0.029	-0.316	-0.13	-0.177
-0.698	-0.252	0.446	0.475	-0.572	0.097	-0.117	-0.12	0.029	-0.318	-0.133	-0.18
-0.697	-0.252	0.446	0.474	-0.572	0.097	-0.117	-0.121	0.028	-0.322	-0.136	-0.183
-0.696	-0.257	0.439	0.476	-0.568	0.091	-0.122	-0.13	0.018	-0.331	-0.143	-0.192
-0.709	-0.26	0.449	0.484	-0.579	0.095	-0.121	-0.128	0.021	-0.329	-0.141	-0.19
-0.713	-0.253	0.461	0.483	-0.587	0.103	-0.113	-0.12	0.029	-0.32	-0.135	-0.183
-0.725	-0.258	0.467	0.491	-0.596	0.104	-0.11	-0.117	0.031	-0.319	-0.132	-0.18
-0.731	-0.264	0.468	0.497	-0.599	0.102	-0.104	-0.114	0.032	-0.32	-0.134	-0.186
-0.726	-0.262	0.465	0.493	-0.595	0.102	-0.103	-0.117	0.03	-0.32	-0.134	-0.186
-0.738	-0.259	0.479	0.498	-0.608	0.11	-0.103	-0.117	0.03	-0.319	-0.131	-0.178
-0.722	-0.251	0.47	0.486	-0.596	0.11	-0.101	-0.114	0.033	-0.318	-0.131	-0.179
-0.695	-0.25	0.445	0.472	-0.57	0.097	-0.105	-0.117	0.029	-0.322	-0.134	-0.181
-0.712	-0.253	0.46	0.482	-0.586	0.103	-0.1	-0.112	0.034	-0.318	-0.127	-0.177
-0.72	-0.247	0.472	0.483	-0.596	0.113	-0.093	-0.106	0.04	-0.312	-0.121	-0.172
-0.702	-0.245	0.457	0.473	-0.58	0.106	-0.095	-0.111	0.035	-0.314	-0.125	-0.175
-0.706	-0.254	0.452	0.48	-0.579	0.099	-0.096	-0.114	0.034	-0.314	-0.123	-0.176
-0.722	-0.261	0.462	0.491	-0.592	0.101	-0.094	-0.115	0.03	-0.319	-0.13	-0.179
-0.729	-0.26	0.469	0.494	-0.599	0.105	-0.091	-0.115	0.031	-0.322	-0.134	-0.182
-0.734	-0.261	0.473	0.497	-0.604	0.106	-0.091	-0.111	0.034	-0.318	-0.129	-0.18
-0.729	-0.258	0.47	0.493	-0.6	0.106	-0.092	-0.111	0.033	-0.319	-0.131	-0.18
-0.701	-0.251	0.45	0.475	-0.576	0.1	-0.1	-0.123	0.021	-0.33	-0.141	-0.191
-0.693	-0.249	0.444	0.471	-0.569	0.097	-0.102	-0.129	0.015	-0.336	-0.145	-0.196
-0.694	-0.254	0.44	0.473	-0.567	0.093	-0.102	-0.128	0.018	-0.336	-0.146	-0.195
-0.69	-0.255	0.435	0.472	-0.563	0.09	-0.102	-0.129	0.015	-0.336	-0.148	-0.197
-0.692	-0.254	0.438	0.472	-0.565	0.092	-0.097	-0.126	0.017	-0.335	-0.147	-0.194
-0.7	-0.25	0.451	0.475	-0.575	0.1	-0.09	-0.119	0.022	-0.33	-0.144	-0.191
-0.701	-0.25	0.451	0.475	-0.576	0.101	-0.085	-0.116	0.022	-0.33	-0.144	-0.191
-0.684	-0.252	0.432	0.468	-0.558	0.09	-0.088	-0.12	0.022	-0.331	-0.145	-0.194
-0.688	-0.248	0.44	0.469	-0.564	0.096	-0.085	-0.122	0.019	-0.332	-0.145	-0.195
-0.704	-0.253	0.451	0.478	-0.578	0.099	-0.08	-0.116	0.017	-0.335	-0.147	-0.194
-0.718	-0.261	0.457	0.489	-0.588	0.099	-0.074	-0.114	0.024	-0.328	-0.142	-0.193
-0.708	-0.263	0.445	0.485	-0.577	0.091	-0.076	-0.121	0.018	-0.334	-0.147	-0.197
-0.703	-0.267	0.436	0.485	-0.57	0.085	-0.076	-0.122	0.015	-0.339	-0.151	-0.199
-0.714	-0.273	0.441	0.493	-0.577	0.084	-0.07	-0.119	0.017	-0.338	-0.15	-0.198
-0.711	-0.272	0.44	0.491	-0.575	0.084	-0.073	-0.124	0.013	-0.34	-0.152	-0.201
-0.717	-0.264	0.454	0.489	-0.585	0.095	-0.068	-0.121	0.018	-0.333	-0.146	-0.195
-0.693	-0.251	0.442	0.472	-0.568	0.096	-0.069	-0.121	0.017	-0.335	-0.147	-0.196
-0.668	-0.243	0.425	0.456	-0.546	0.09	-0.076	-0.125	0.012	-0.342	-0.153	-0.201
-0.673	-0.246	0.427	0.46	-0.55	0.09	-0.075	-0.122	0.017	-0.339	-0.151	-0.197
-0.674	-0.247	0.427	0.461	-0.55	0.09	-0.078	-0.124	0.018	-0.336	-0.147	-0.196
-0.677	-0.245	0.432	0.461	-0.554	0.093	-0.079	-0.123	0.018	-0.337	-0.144	-0.193
-0.682	-0.245	0.437	0.464	-0.559	0.096	-0.077	-0.124	0.017	-0.338	-0.143	-0.191
-0.69	-0.245	0.445	0.468	-0.568	0.1	-0.08	-0.129	0.014	-0.342	-0.147	-0.195
-0.697	-0.243	0.453	0.47	-0.575	0.105	-0.08	-0.129	0.013	-0.344	-0.149	-0.196
-0.694	-0.241	0.453	0.468	-0.573	0.105	-0.081	-0.131	0.013	-0.342	-0.146	-0.195
-0.69	-0.243	0.446	0.467	-0.568	0.101	-0.086	-0.131	0.013	-0.342	-0.145	-0.194
-0.68	-0.236	0.445	0.458	-0.562	0.104	-0.09	-0.131	0.011	-0.343	-0.145	-0.193
-0.672	-0.232	0.442	0.452	-0.557	0.105	-0.09	-0.134	0.011	-0.341	-0.145	-0.193
-0.675	-0.233	0.443	0.454	-0.559	0.105	-0.09	-0.135	0.009	-0.341	-0.147	-0.194
-0.68	-0.232	0.449	0.456	-0.565	0.108	-0.088	-0.135	0.009	-0.342	-0.148	-0.194
-0.689	-0.238	0.45	0.464	-0.569	0.105	-0.081	-0.132	0.013	-0.338	-0.143	-0.19
-0.696	-0.245	0.451	0.471	-0.574	0.102	-0.08	-0.128	0.015	-0.333	-0.136	-0.181
-0.688	-0.243	0.445	0.466	-0.567	0.101	-0.084	-0.13	0.015	-0.334	-0.136	-0.183
-0.689	-0.238	0.451	0.464	-0.57	0.106	-0.082	-0.126	0.018	-0.331	-0.136	-0.186
-0.693	-0.239	0.454	0.466	-0.574	0.107	-0.08	-0.124	0.021	-0.331	-0.135	-0.184
-0.685	-0.239	0.446	0.462	-0.566	0.103	-0.083	-0.127	0.018	-0.334	-0.138	-0.186
-0.681	-0.236	0.445	0.459	-0.562	0.104	-0.084	-0.13	0.015	-0.337	-0.141	-0.189
-0.662	-0.227	0.436	0.445	-0.549	0.104	-0.086	-0.133	0.013	-0.339	-0.142	-0.191
-0.644	-0.228	0.417	0.436	-0.531	0.095	-0.09	-0.134	0.009	-0.344	-0.146	-0.194
-0.647	-0.235	0.411	0.441	-0.529	0.088	-0.09	-0.136	0.005	-0.346	-0.149	-0.198
-0.656	-0.234	0.422	0.445	-0.539	0.095	-0.091	-0.135	0.009	-0.343	-0.145	-0.195
-0.671	-0.235	0.436	0.454	-0.554	0.101	-0.092	-0.132	0.011	-0.34	-0.141	-0.192
-0.681	-0.231	0.45	0.456	-0.566	0.11	-0.09	-0.128	0.015	-0.335	-0.136	-0.186
-0.671	-0.225	0.447	0.448	-0.558	0.111	-0.092	-0.128	0.015	-0.336	-0.137	-0.186
-0.66	-0.226	0.435	0.443	-0.548	0.105	-0.094	-0.13	0.011	-0.34	-0.141	-0.19
-0.656	-0.228	0.428	0.442	-0.542	0.1	-0.095	-0.13	0.011	-0.34	-0.141	-0.189
-0.663	-0.232	0.431	0.447	-0.547	0.1	-0.096	-0.128	0.015	-0.335	-0.139	-0.186
-0.662	-0.229	0.433	0.446	-0.548	0.102	-0.097	-0.129	0.013	-0.336	-0.138	-0.188
-0.639	-0.223	0.416	0.43	-0.527	0.097	-0.107	-0.137	0.004	-0.344	-0.145	-0.195
-0.651	-0.226	0.425	0.438	-0.538	0.1	-0.104	-0.132	0.011	-0.332	-0.137	-0.188
-0.692	-0.232	0.46	0.462	-0.576	0.114	-0.092	-0.121	0.021	-0.319	-0.123	-0.175
-0.702	-0.235	0.467	0.469	-0.585	0.116	-0.09	-0.12	0.021	-0.324	-0.128	-0.179
-0.694	-0.234	0.46	0.465	-0.577	0.113	-0.088	-0.121	0.019	-0.327	-0.131	-0.18
-0.696	-0.234	0.461	0.465	-0.579	0.113	-0.089	-0.119	0.021	-0.326	-0.129	-0.179
-0.683	-0.234	0.45	0.458	-0.567	0.108	-0.096	-0.121	0.022	-0.324	-0.124	-0.178
-0.666	-0.231	0.435	0.448	-0.551	0.102	-0.103	-0.127	0.015	-0.33	-0.131	-0.184
-0.659	-0.234	0.426	0.447	-0.543	0.097	-0.106	-0.132	0.009	-0.338	-0.139	-0.189
-0.641	-0.235	0.406	0.439	-0.524	0.086	-0.111	-0.137	0.004	-0.341	-0.141	-0.188
-0.635	-0.235	0.4	0.435	-0.517	0.083	-0.114	-0.14	0.004	-0.341	-0.144	-0.196
-0.642	-0.229	0.414	0.435	-0.528	0.093	-0.11	-0.135	0.011	-0.335	-0.139	-0.191
-0.647	-0.217	0.43	0.432	-0.539	0.106	-0.111	-0.133	0.013	-0.332	-0.133	-0.183
-0.649	-0.217	0.432	0.433	-0.54	0.107	-0.115	-0.138	0.01	-0.335	-0.137	-0.188
-0.657	-0.218	0.44	0.438	-0.548	0.111	-0.112	-0.136	0.011	-0.335	-0.138	-0.189
-0.666	-0.218	0.448	0.443	-0.557	0.115	-0.111	-0.135	0.013	-0.333	-0.134	-0.187
-0.663	-0.216	0.447	0.44	-0.555	0.116	-0.108	-0.132	0.017	-0.329	-0.131	-0.182
-0.662	-0.212	0.45	0.438	-0.556	0.119	-0.109	-0.131	0.021	-0.327	-0.13	-0.182
-0.663	-0.214	0.449	0.439	-0.556	0.117	-0.11	-0.13	0.021	-0.325	-0.128	-0.182
-0.666	-0.214	0.452	0.44	-0.559	0.119	-0.109	-0.128	0.025	-0.323	-0.125	-0.178
-0.664	-0.215	0.448	0.44	-0.556	0.116	-0.113	-0.131	0.018	-0.328	-0.131	-0.181
-0.658	-0.22	0.439	0.439	-0.548	0.11	-0.115	-0.135	0.015	-0.332	-0.135	-0.186
-0.662	-0.226	0.436	0.444	-0.549	0.105	-0.114	-0.135	0.017	-0.332	-0.134	-0.188
-0.662	-0.229	0.433	0.446	-0.547	0.102	-0.114	-0.133	0.017	-0.328	-0.131	-0.184
-0.657	-0.226	0.431	0.442	-0.544	0.103	-0.115	-0.135	0.017	-0.328	-0.13	-0.185
-0.657	-0.227	0.43	0.442	-0.543	0.102	-0.118	-0.135	0.016	-0.329	-0.131	-0.186
-0.651	-0.224	0.428	0.438	-0.54	0.102	-0.119	-0.136	0.019	-0.325	-0.128	-0.183
-0.64	-0.225	0.415	0.432	-0.528	0.096	-0.122	-0.138	0.017	-0.328	-0.13	-0.186
-0.633	-0.23	0.404	0.431	-0.518	0.087	-0.128	-0.141	0.011	-0.334	-0.137	-0.191
-0.639	-0.233	0.407	0.435	-0.523	0.087	-0.128	-0.141	0.012	-0.332	-0.134	-0.189
-0.645	-0.235	0.411	0.441	-0.528	0.088	-0.128	-0.141	0.011	-0.331	-0.135	-0.19
-0.642	-0.227	0.415	0.435	-0.529	0.095	-0.129	-0.143	0.01	-0.333	-0.137	-0.191
-0.647	-0.218	0.429	0.433	-0.538	0.105	-0.129	-0.141	0.015	-0.33	-0.133	-0.186
-0.655	-0.217	0.438	0.436	-0.546	0.11	-0.126	-0.137	0.018	-0.326	-0.13	-0.182
-0.663	-0.219	0.444	0.441	-0.553	0.113	-0.123	-0.136	0.019	-0.324	-0.129	-0.181
-0.657	-0.215	0.442	0.436	-0.55	0.113	-0.127	-0.139	0.017	-0.328	-0.131	-0.183
-0.652	-0.213	0.439	0.433	-0.545	0.113	-0.13	-0.141	0.015	-0.33	-0.133	-0.184
-0.661	-0.218	0.443	0.44	-0.552	0.113	-0.128	-0.141	0.013	-0.329	-0.131	-0.184
-0.671	-0.218	0.454	0.445	-0.562	0.117	-0.125	-0.138	0.016	-0.326	-0.126	-0.18
-0.681	-0.217	0.465	0.449	-0.573	0.123	-0.12	-0.133	0.022	-0.322	-0.121	-0.176
-0.667	-0.217	0.451	0.443	-0.559	0.117	-0.128	-0.14	0.018	-0.327	-0.128	-0.181
-0.647	-0.217	0.43	0.432	-0.538	0.106	-0.139	-0.148	0.009	-0.336	-0.137	-0.191
-0.635	-0.221	0.414	0.427	-0.525	0.097	-0.138	-0.146	0.009	-0.336	-0.138	-0.192
-0.639	-0.225	0.415	0.432	-0.527	0.095	-0.135	-0.141	0.014	-0.327	-0.132	-0.184
-0.631	-0.229	0.403	0.43	-0.517	0.087	-0.139	-0.141	0.013	-0.329	-0.133	-0.189
-0.633	-0.228	0.406	0.43	-0.52	0.089	-0.136	-0.139	0.016	-0.327	-0.131	-0.188
-0.661	-0.225	0.436	0.443	-0.548	0.106	-0.129	-0.132	0.024	-0.318	-0.122	-0.179
-0.654	-0.223	0.432	0.439	-0.543	0.105	-0.134	-0.137	0.016	-0.326	-0.128	-0.187
-0.641	-0.217	0.424	0.429	-0.532	0.103	-0.138	-0.141	0.011	-0.33	-0.132	-0.191
-0.64	-0.223	0.417	0.431	-0.528	0.097	-0.14	-0.141	0.013	-0.33	-0.132	-0.192
-0.653	-0.233	0.421	0.443	-0.537	0.094	-0.137	-0.139	0.014	-0.327	-0.131	-0.191
-0.666	-0.234	0.431	0.45	-0.548	0.099	-0.131	-0.132	0.016	-0.324	-0.128	-0.188
-0.684	-0.232	0.453	0.458	-0.569	0.111	-0.128	-0.129	0.021	-0.321	-0.124	-0.184
-0.689	-0.224	0.465	0.457	-0.577	0.12	-0.128	-0.129	0.02	-0.32	-0.123	-0.181
-0.659	-0.213	0.445	0.436	-0.552	0.116	-0.137	-0.137	0.012	-0.329	-0.132	-0.189
-0.635	-0.207	0.427	0.421	-0.531	0.11	-0.143	-0.142	0.007	-0.334	-0.138	-0.192
-0.642	-0.213	0.428	0.428	-0.535	0.107	-0.141	-0.14	0.011	-0.331	-0.133	-0.19
-0.658	-0.221	0.438	0.44	-0.547	0.108	-0.141	-0.139	0.011	-0.33	-0.133	-0.19
-0.656	-0.223	0.434	0.44	-0.545	0.106	-0.144	-0.141	0.004	-0.335	-0.138	-0.195
-0.656	-0.223	0.432	0.44	-0.544	0.105	-0.145	-0.143	0.003	-0.336	-0.14	-0.199
-0.654	-0.215	0.439	0.435	-0.546	0.112	-0.144	-0.14	0.006	-0.332	-0.138	-0.195
-0.655	-0.214	0.441	0.435	-0.548	0.114	-0.139	-0.134	0.011	-0.329	-0.133	-0.193
-0.66	-0.223	0.438	0.442	-0.549	0.107	-0.135	-0.131	0.015	-0.324	-0.129	-0.187
-0.659	-0.225	0.435	0.442	-0.547	0.105	-0.131	-0.129	0.017	-0.321	-0.128	-0.189
-0.656	-0.225	0.432	0.441	-0.544	0.104	-0.13	-0.129	0.015	-0.324	-0.131	-0.195
-0.657	-0.224	0.433	0.441	-0.545	0.104	-0.131	-0.127	0.017	-0.322	-0.127	-0.186
-0.653	-0.219	0.434	0.436	-0.544	0.108	-0.134	-0.128	0.017	-0.322	-0.128	-0.187
-0.647	-0.217	0.43	0.432	-0.539	0.107	-0.137	-0.131	0.015	-0.325	-0.13	-0.189
-0.639	-0.221	0.419	0.43	-0.529	0.099	-0.14	-0.133	0.011	-0.328	-0.133	-0.193
-0.636	-0.228	0.409	0.432	-0.523	0.091	-0.14	-0.133	0.011	-0.33	-0.136	-0.196
-0.642	-0.234	0.408	0.439	-0.525	0.087	-0.136	-0.131	0.013	-0.327	-0.133	-0.193
-0.637	-0.229	0.408	0.433	-0.522	0.089	-0.139	-0.13	0.013	-0.327	-0.133	-0.195
-0.625	-0.214	0.411	0.42	-0.518	0.098	-0.142	-0.133	0.011	-0.324	-0.13	-0.191
-0.629	-0.209	0.42	0.419	-0.524	0.105	-0.141	-0.133	0.01	-0.327	-0.133	-0.195
-0.631	-0.205	0.426	0.418	-0.529	0.111	-0.142	-0.133	0.011	-0.33	-0.136	-0.195
-0.632	-0.201	0.431	0.416	-0.532	0.116	-0.143	-0.131	0.014	-0.328	-0.132	-0.192
-0.632	-0.204	0.427	0.418	-0.53	0.112	-0.141	-0.126	0.017	-0.326	-0.131	-0.19
-0.63	-0.213	0.417	0.421	-0.523	0.102	-0.14	-0.126	0.02	-0.325	-0.13	-0.189
-0.659	-0.211	0.449	0.435	-0.554	0.118	-0.129	-0.118	0.025	-0.319	-0.12	-0.18
-0.674	-0.206	0.469	0.44	-0.572	0.132	-0.121	-0.113	0.033	-0.313	-0.116	-0.174
-0.656	-0.207	0.449	0.431	-0.552	0.12	-0.126	-0.117	0.03	-0.317	-0.118	-0.178
-0.64	-0.206	0.434	0.423	-0.537	0.114	-0.131	-0.12	0.026	-0.32	-0.122	-0.181
-0.633	-0.21	0.423	0.421	-0.528	0.106	-0.13	-0.12	0.027	-0.32	-0.123	-0.181
-0.624	-0.207	0.416	0.415	-0.52	0.104	-0.126	-0.119	0.029	-0.317	-0.12	-0.178
-0.616	-0.204	0.411	0.409	-0.513	0.104	-0.123	-0.119	0.03	-0.316	-0.12	-0.177
-0.621	-0.204	0.416	0.412	-0.518	0.105	-0.122	-0.116	0.032	-0.316	-0.119	-0.177
-0.626	-0.197	0.429	0.411	-0.527	0.117	-0.12	-0.114	0.035	-0.311	-0.117	-0.173
-0.633	-0.189	0.444	0.41	-0.538	0.128	-0.114	-0.11	0.04	-0.305	-0.111	-0.168
-0.627	-0.183	0.444	0.406	-0.536	0.13	-0.115	-0.11	0.04	-0.306	-0.112	-0.17
-0.625	-0.186	0.44	0.406	-0.532	0.127	-0.113	-0.115	0.038	-0.31	-0.114	-0.17
-0.637	-0.185	0.452	0.411	-0.544	0.133	-0.103	-0.106	0.044	-0.301	-0.106	-0.162
-0.626	-0.184	0.443	0.406	-0.535	0.13	-0.105	-0.107	0.044	-0.3	-0.106	-0.162
-0.618	-0.181	0.436	0.399	-0.526	0.128	-0.105	-0.11	0.043	-0.302	-0.109	-0.165
-0.624	-0.17	0.455	0.397	-0.539	0.142	-0.1	-0.1	0.049	-0.298	-0.105	-0.161
-0.622	-0.169	0.453	0.396	-0.537	0.142	-0.103	-0.106	0.043	-0.303	-0.11	-0.163
-0.622	-0.17	0.451	0.396	-0.536	0.141	-0.108	-0.117	0.036	-0.308	-0.113	-0.166
-0.625	-0.169	0.458	0.397	-0.542	0.145	-0.107	-0.111	0.044	-0.301	-0.107	-0.16
-0.634	-0.172	0.463	0.403	-0.548	0.145	-0.106	-0.106	0.045	-0.3	-0.106	-0.159
-0.64	-0.168	0.473	0.404	-0.557	0.152	-0.101	-0.104	0.049	-0.296	-0.102	-0.155
-0.653	-0.168	0.486	0.41	-0.57	0.159	-0.098	-0.102	0.052	-0.291	-0.099	-0.152
-0.651	-0.175	0.475	0.413	-0.564	0.15	-0.104	-0.111	0.041	-0.302	-0.109	-0.159
-0.645	-0.184	0.462	0.415	-0.553	0.139	-0.112	-0.122	0.033	-0.309	-0.115	-0.164
-0.648	-0.188	0.461	0.418	-0.554	0.137	-0.113	-0.118	0.035	-0.305	-0.114	-0.166
-0.627	-0.177	0.45	0.403	-0.538	0.136	-0.107	-0.11	0.042	-0.3	-0.107	-0.161
-0.629	-0.18	0.449	0.405	-0.539	0.134	-0.106	-0.105	0.046	-0.297	-0.104	-0.155
-0.633	-0.182	0.451	0.407	-0.542	0.135	-0.104	-0.101	0.05	-0.292	-0.102	-0.151
-0.635	-0.172	0.463	0.404	-0.548	0.145	-0.104	-0.102	0.051	-0.29	-0.098	-0.15
-0.647	-0.175	0.472	0.411	-0.56	0.149	-0.105	-0.106	0.047	-0.293	-0.103	-0.154
-0.646	-0.18	0.466	0.413	-0.556	0.143	-0.104	-0.108	0.043	-0.298	-0.106	-0.159
-0.657	-0.188	0.469	0.422	-0.564	0.141	-0.105	-0.11	0.043	-0.296	-0.104	-0.158
-0.654	-0.186	0.468	0.42	-0.561	0.141	-0.106	-0.112	0.044	-0.296	-0.105	-0.16
-0.657	-0.175	0.481	0.416	-0.569	0.153	-0.102	-0.108	0.046	-0.293	-0.102	-0.155
-0.671	-0.167	0.504	0.419	-0.588	0.169	-0.1	-0.108	0.05	-0.288	-0.1	-0.153
-0.658	-0.164	0.494	0.411	-0.577	0.165	-0.107	-0.116	0.042	-0.297	-0.109	-0.167
-0.641	-0.164	0.478	0.403	-0.559	0.157	-0.111	-0.114	0.038	-0.304	-0.115	-0.17
-0.632	-0.162	0.47	0.397	-0.551	0.154	-0.112	-0.114	0.041	-0.304	-0.115	-0.17
-0.646	-0.17	0.476	0.408	-0.561	0.153	-0.113	-0.116	0.04	-0.303	-0.115	-0.172
-0.651	-0.169	0.482	0.41	-0.567	0.157	-0.112	-0.113	0.042	-0.305	-0.115	-0.171
-0.643	-0.166	0.477	0.405	-0.56	0.155	-0.111	-0.115	0.041	-0.305	-0.113	-0.168
-0.641	-0.171	0.47	0.406	-0.556	0.15	-0.115	-0.121	0.037	-0.307	-0.116	-0.171
-0.619	-0.164	0.456	0.391	-0.537	0.146	-0.124	-0.128	0.029	-0.316	-0.126	-0.181
-0.618	-0.168	0.45	0.393	-0.534	0.141	-0.12	-0.129	0.023	-0.321	-0.133	-0.188
-0.617	-0.172	0.444	0.395	-0.53	0.136	-0.115	-0.127	0.027	-0.318	-0.131	-0.185
-0.605	-0.168	0.437	0.386	-0.52	0.135	-0.115	-0.123	0.033	-0.311	-0.122	-0.177
-0.625	-0.181	0.444	0.403	-0.534	0.131	-0.113	-0.114	0.033	-0.311	-0.121	-0.175
-0.638	-0.184	0.454	0.411	-0.545	0.135	-0.112	-0.118	0.03	-0.314	-0.122	-0.176
-0.636	-0.173	0.462	0.405	-0.549	0.144	-0.108	-0.119	0.035	-0.31	-0.117	-0.172
-0.624	-0.16	0.465	0.392	-0.544	0.152	-0.106	-0.115	0.039	-0.305	-0.113	-0.169
-0.63	-0.167	0.465	0.399	-0.547	0.149	-0.114	-0.124	0.029	-0.312	-0.12	-0.175
-0.64	-0.177	0.463	0.408	-0.551	0.143	-0.117	-0.128	0.029	-0.317	-0.125	-0.177
-0.628	-0.166	0.462	0.397	-0.545	0.148	-0.117	-0.123	0.036	-0.309	-0.118	-0.17
-0.634	-0.173	0.461	0.404	-0.547	0.143	-0.119	-0.122	0.029	-0.312	-0.119	-0.172
-0.645	-0.181	0.464	0.413	-0.554	0.141	-0.123	-0.132	0.019	-0.324	-0.13	-0.181
-0.649	-0.182	0.467	0.415	-0.558	0.142	-0.129	-0.145	0.012	-0.331	-0.136	-0.186
-0.651	-0.181	0.47	0.416	-0.56	0.144	-0.127	-0.136	0.018	-0.325	-0.131	-0.182
-0.651	-0.175	0.476	0.413	-0.564	0.15	-0.126	-0.133	0.021	-0.32	-0.128	-0.181
-0.654	-0.175	0.479	0.415	-0.567	0.152	-0.13	-0.137	0.018	-0.323	-0.133	-0.183
-0.659	-0.172	0.487	0.415	-0.574	0.158	-0.128	-0.141	0.018	-0.321	-0.131	-0.181
-0.651	-0.164	0.488	0.407	-0.57	0.163	-0.121	-0.138	0.018	-0.319	-0.128	-0.179
-0.647	-0.168	0.48	0.407	-0.564	0.157	-0.119	-0.13	0.022	-0.317	-0.128	-0.176
-0.652	-0.172	0.48	0.412	-0.566	0.153	-0.124	-0.143	0.019	-0.318	-0.128	-0.177
-0.654	-0.173	0.481	0.413	-0.568	0.154	-0.123	-0.132	0.028	-0.308	-0.119	-0.171
-0.649	-0.175	0.474	0.412	-0.561	0.149	-0.125	-0.132	0.029	-0.306	-0.118	-0.17
-0.638	-0.16	0.478	0.399	-0.558	0.16	-0.123	-0.139	0.027	-0.303	-0.116	-0.169
-0.64	-0.15	0.489	0.395	-0.565	0.17	-0.117	-0.129	0.04	-0.291	-0.107	-0.16
-0.645	-0.159	0.486	0.403	-0.566	0.164	-0.119	-0.13	0.044	-0.289	-0.107	-0.166
-0.641	-0.163	0.479	0.402	-0.56	0.158	-0.119	-0.129	0.05	-0.28	-0.101	-0.165
-0.637	-0.162	0.476	0.399	-0.556	0.158	-0.12	-0.127	0.058	-0.269	-0.092	-0.158
-0.635	-0.155	0.48	0.396	-0.557	0.162	-0.119	-0.126	0.068	-0.256	-0.085	-0.154
-0.626	-0.144	0.483	0.386	-0.555	0.17	-0.123	-0.127	0.081	-0.241	-0.074	-0.149
-0.628	-0.138	0.49	0.383	-0.559	0.176	-0.127	-0.119	0.095	-0.224	-0.059	-0.142
-0.632	-0.135	0.497	0.383	-0.565	0.181	-0.123	-0.119	0.106	-0.21	-0.052	-0.141
-0.637	-0.132	0.506	0.385	-0.572	0.188	-0.121	-0.111	0.126	-0.191	-0.041	-0.138
-0.651	-0.134	0.518	0.392	-0.585	0.193	-0.127	-0.107	0.145	-0.17	-0.024	-0.132
-0.633	-0.125	0.508	0.379	-0.571	0.192	-0.133	-0.11	0.172	-0.141	-0.003	-0.12
-0.603	-0.111	0.492	0.357	-0.547	0.191	-0.132	-0.095	0.204	-0.111	0.017	-0.109
-0.587	-0.107	0.479	0.346	-0.533	0.186	-0.138	-0.092	0.217	-0.102	0.02	-0.112
-0.598	-0.11	0.488	0.353	-0.542	0.189	-0.137	-0.089	0.224	-0.087	0.033	-0.102
-0.624	-0.112	0.512	0.367	-0.568	0.201	-0.137	-0.098	0.223	-0.081	0.042	-0.093
-0.633	-0.108	0.526	0.37	-0.58	0.209	-0.136	-0.107	0.217	-0.085	0.039	-0.094
-0.629	-0.107	0.522	0.368	-0.576	0.207	-0.13	-0.108	0.2	-0.104	0.022	-0.104
-0.642	-0.105	0.537	0.373	-0.59	0.216	-0.122	-0.102	0.185	-0.124	0.008	-0.108
-0.671	-0.104	0.568	0.388	-0.62	0.232	-0.102	-0.091	0.166	-0.146	-0.006	-0.113
-0.667	-0.105	0.562	0.386	-0.615	0.229	-0.1	-0.121	0.104	-0.203	-0.049	-0.141
-0.67	-0.102	0.567	0.386	-0.619	0.233	-0.1	-0.146	0.043	-0.249	-0.079	-0.157
-0.671	-0.098	0.573	0.385	-0.622	0.237	-0.093	-0.162	0.011	-0.278	-0.096	-0.16
-0.659	-0.088	0.571	0.373	-0.615	0.241	-0.095	-0.18	-0.02	-0.298	-0.105	-0.155
-0.661	-0.081	0.58	0.371	-0.621	0.249	-0.096	-0.208	-0.062	-0.329	-0.118	-0.15
-0.658	-0.071	0.587	0.364	-0.623	0.258	-0.091	-0.236	-0.099	-0.366	-0.14	-0.152
-0.667	-0.074	0.593	0.37	-0.63	0.26	-0.089	-0.25	-0.128	-0.395	-0.153	-0.144
-0.686	-0.09	0.597	0.389	-0.641	0.254	-0.084	-0.264	-0.163	-0.436	-0.174	-0.141
-0.68	-0.103	0.578	0.392	-0.629	0.237	-0.077	-0.245	-0.178	-0.469	-0.19	-0.132
-0.674	-0.114	0.561	0.394	-0.618	0.224	-0.084	-0.262	-0.213	-0.505	-0.203	-0.121
-0.673	-0.119	0.554	0.396	-0.614	0.218	-0.086	-0.277	-0.245	-0.532	-0.208	-0.103
-0.628	-0.12	0.507	0.374	-0.568	0.194	-0.082	-0.246	-0.252	-0.56	-0.223	-0.092
-0.602	-0.133	0.469	0.367	-0.535	0.169	-0.08	-0.244	-0.298	-0.625	-0.265	-0.102
-0.614	-0.147	0.467	0.381	-0.54	0.16	-0.072	-0.268	-0.378	-0.701	-0.311	-0.108
-0.613	-0.158	0.456	0.385	-0.534	0.149	-0.066	-0.303	-0.469	-0.794	-0.378	-0.133
-0.614	-0.169	0.446	0.391	-0.529	0.139	-0.064	-0.337	-0.552	-0.896	-0.457	-0.164
-0.609	-0.18	0.428	0.395	-0.518	0.124	-0.06	-0.358	-0.618	-0.988	-0.531	-0.191
-0.594	-0.191	0.403	0.392	-0.498	0.106	-0.062	-0.369	-0.687	-1.073	-0.598	-0.215
-0.582	-0.205	0.376	0.394	-0.478	0.085	-0.067	-0.398	-0.77	-1.167	-0.672	-0.247
-0.563	-0.222	0.341	0.393	-0.452	0.059	-0.067	-0.431	-0.856	-1.259	-0.748	-0.276
-0.56	-0.239	0.321	0.4	-0.441	0.041	-0.054	-0.453	-0.94	-1.339	-0.814	-0.301
-0.574	-0.266	0.308	0.42	-0.441	0.021	-0.032	-0.441	-0.984	-1.397	-0.87	-0.332
-0.576	-0.287	0.288	0.432	-0.432	0	-0.011	-0.444	-1.017	-1.435	-0.903	-0.336
-0.584	-0.313	0.271	0.449	-0.427	-0.021	0.003	-0.482	-1.067	-1.471	-0.931	-0.341
-0.588	-0.331	0.257	0.459	-0.422	-0.037	0.017	-0.506	-1.107	-1.506	-0.966	-0.356
-0.583	-0.342	0.242	0.462	-0.412	-0.05	0.025	-0.531	-1.157	-1.552	-1.016	-0.385
-0.58	-0.344	0.234	0.462	-0.407	-0.055	0.04	-0.545	-1.173	-1.567	-1.044	-0.408
-0.584	-0.352	0.231	0.468	-0.407	-0.06	0.059	-0.551	-1.179	-1.565	-1.061	-0.436
-0.598	-0.379	0.218	0.488	-0.407	-0.081	0.073	-0.594	-1.219	-1.598	-1.115	-0.501
-0.602	-0.388	0.214	0.495	-0.408	-0.087	0.081	-0.619	-1.222	-1.599	-1.137	-0.542
-0.604	-0.396	0.208	0.499	-0.406	-0.093	0.098	-0.625	-1.205	-1.577	-1.135	-0.558
-0.615	-0.415	0.199	0.515	-0.406	-0.108	0.121	-0.639	-1.209	-1.572	-1.14	-0.577
-0.623	-0.425	0.198	0.524	-0.41	-0.113	0.132	-0.646	-1.215	-1.569	-1.145	-0.593
-0.621	-0.42	0.201	0.521	-0.411	-0.11	0.129	-0.705	-1.246	-1.583	-1.161	-0.613
-0.628	-0.415	0.213	0.521	-0.42	-0.101	0.125	-0.765	-1.296	-1.603	-1.179	-0.633
-0.633	-0.416	0.217	0.525	-0.425	-0.099	0.126	-0.822	-1.332	-1.61	-1.186	-0.647
-0.638	-0.423	0.216	0.53	-0.427	-0.103	0.126	-0.878	-1.363	-1.614	-1.192	-0.666
-0.635	-0.44	0.196	0.537	-0.415	-0.121	0.116	-0.932	-1.392	-1.613	-1.194	-0.682
-0.633	-0.471	0.163	0.552	-0.398	-0.153	0.111	-1.016	-1.421	-1.605	-1.187	-0.692
-0.622	-0.507	0.115	0.565	-0.368	-0.196	0.117	-1.05	-1.406	-1.565	-1.155	-0.681
-0.602	-0.559	0.042	0.581	-0.322	-0.259	0.129	-1.054	-1.357	-1.504	-1.103	-0.652
-0.603	-0.636	-0.034	0.619	-0.284	-0.335	0.152	-1.034	-1.302	-1.436	-1.042	-0.618
-0.596	-0.716	-0.119	0.656	-0.238	-0.417	0.175	-1	-1.238	-1.362	-0.978	-0.586
-0.611	-0.777	-0.167	0.694	-0.222	-0.471	0.197	-0.997	-1.192	-1.304	-0.933	-0.581
-0.615	-0.822	-0.207	0.718	-0.203	-0.514	0.207	-1.002	-1.147	-1.248	-0.888	-0.569
-0.591	-0.847	-0.256	0.719	-0.167	-0.551	0.197	-0.985	-1.096	-1.196	-0.849	-0.554
-0.577	-0.861	-0.283	0.719	-0.146	-0.572	0.193	-0.945	-1.034	-1.141	-0.805	-0.535
-0.554	-0.875	-0.322	0.715	-0.117	-0.598	0.174	-0.938	-0.987	-1.097	-0.769	-0.518
-0.543	-0.881	-0.338	0.713	-0.103	-0.609	0.149	-0.943	-0.953	-1.063	-0.745	-0.512
-0.531	-0.88	-0.349	0.706	-0.091	-0.615	0.131	-0.924	-0.915	-1.03	-0.722	-0.503
-0.523	-0.877	-0.354	0.701	-0.085	-0.616	0.11	-0.923	-0.888	-1.016	-0.717	-0.513
-0.512	-0.873	-0.361	0.693	-0.075	-0.617	0.085	-0.921	-0.863	-1	-0.712	-0.523
-0.487	-0.856	-0.368	0.671	-0.059	-0.611	0.061	-0.889	-0.821	-0.969	-0.689	-0.513
-0.498	-0.829	-0.331	0.664	-0.084	-0.579	0.053	-0.853	-0.768	-0.931	-0.66	-0.493
-0.498	-0.814	-0.316	0.656	-0.091	-0.565	0.04	-0.829	-0.748	-0.921	-0.656	-0.494
-0.456	-0.801	-0.345	0.628	-0.056	-0.573	0.022	-0.821	-0.737	-0.916	-0.654	-0.5
-0.425	-0.791	-0.365	0.609	-0.03	-0.578	0.001	-0.804	-0.719	-0.905	-0.645	-0.5
-0.428	-0.774	-0.345	0.602	-0.042	-0.559	-0.012	-0.771	-0.693	-0.889	-0.63	-0.487
-0.411	-0.739	-0.328	0.575	-0.042	-0.532	-0.032	-0.754	-0.672	-0.871	-0.613	-0.469
-0.371	-0.706	-0.335	0.538	-0.018	-0.52	-0.068	-0.734	-0.654	-0.855	-0.596	-0.448
-0.347	-0.679	-0.332	0.513	-0.008	-0.505	-0.091	-0.702	-0.62	-0.827	-0.57	-0.424
-0.353	-0.664	-0.31	0.509	-0.021	-0.487	-0.111	-0.668	-0.586	-0.799	-0.548	-0.413
-0.345	-0.654	-0.309	0.5	-0.018	-0.481	-0.131	-0.638	-0.549	-0.766	-0.518	-0.389
-0.316	-0.632	-0.317	0.474	0.001	-0.474	-0.156	-0.596	-0.497	-0.721	-0.479	-0.364
-0.303	-0.614	-0.31	0.459	0.004	-0.462	-0.179	-0.552	-0.451	-0.68	-0.444	-0.343
-0.302	-0.606	-0.303	0.454	0.001	-0.455	-0.187	-0.526	-0.418	-0.652	-0.419	-0.332
-0.305	-0.595	-0.289	0.451	-0.008	-0.442	-0.204	-0.487	-0.378	-0.621	-0.395	-0.323
-0.297	-0.579	-0.281	0.438	-0.008	-0.429	-0.221	-0.454	-0.35	-0.602	-0.382	-0.321
-0.299	-0.554	-0.255	0.427	-0.022	-0.404	-0.223	-0.428	-0.33	-0.592	-0.38	-0.334
-0.318	-0.531	-0.214	0.424	-0.051	-0.372	-0.222	-0.412	-0.311	-0.58	-0.373	-0.338
-0.326	-0.52	-0.195	0.423	-0.066	-0.356	-0.229	-0.406	-0.297	-0.569	-0.363	-0.334
-0.325	-0.494	-0.169	0.41	-0.078	-0.332	-0.238	-0.389	-0.273	-0.546	-0.342	-0.319
-0.355	-0.475	-0.12	0.415	-0.117	-0.297	-0.234	-0.366	-0.26	-0.538	-0.34	-0.323
-0.406	-0.475	-0.07	0.441	-0.168	-0.272	-0.216	-0.344	-0.238	-0.529	-0.339	-0.337
-0.42	-0.461	-0.04	0.44	-0.19	-0.25	-0.209	-0.333	-0.22	-0.515	-0.329	-0.333
-0.432	-0.444	-0.012	0.438	-0.21	-0.228	-0.214	-0.327	-0.215	-0.513	-0.326	-0.331
-0.462	-0.435	0.027	0.449	-0.244	-0.203	-0.212	-0.317	-0.199	-0.501	-0.317	-0.33
-0.486	-0.421	0.065	0.454	-0.276	-0.178	-0.204	-0.304	-0.188	-0.493	-0.314	-0.334
-0.503	-0.41	0.093	0.457	-0.298	-0.159	-0.199	-0.291	-0.179	-0.49	-0.314	-0.341
-0.517	-0.405	0.113	0.462	-0.315	-0.146	-0.187	-0.279	-0.163	-0.479	-0.308	-0.344
-0.541	-0.399	0.143	0.47	-0.342	-0.128	-0.173	-0.255	-0.143	-0.468	-0.3	-0.342
-0.554	-0.382	0.172	0.468	-0.363	-0.104	-0.167	-0.238	-0.126	-0.453	-0.284	-0.329
-0.573	-0.374	0.198	0.473	-0.385	-0.088	-0.163	-0.231	-0.115	-0.442	-0.275	-0.322
-0.594	-0.373	0.221	0.483	-0.407	-0.076	-0.165	-0.226	-0.107	-0.439	-0.273	-0.321
-0.599	-0.364	0.234	0.481	-0.416	-0.065	-0.164	-0.221	-0.102	-0.434	-0.269	-0.319
-0.603	-0.347	0.255	0.475	-0.428	-0.046	-0.154	-0.201	-0.086	-0.423	-0.258	-0.312
-0.605	-0.331	0.274	0.468	-0.44	-0.029	-0.141	-0.18	-0.067	-0.408	-0.244	-0.304
-0.621	-0.335	0.286	0.477	-0.453	-0.025	-0.132	-0.171	-0.062	-0.408	-0.248	-0.308
-0.627	-0.327	0.299	0.477	-0.464	-0.014	-0.133	-0.165	-0.059	-0.407	-0.248	-0.31
-0.629	-0.313	0.316	0.471	-0.473	0.002	-0.128	-0.15	-0.046	-0.397	-0.236	-0.301
-0.638	-0.307	0.33	0.473	-0.484	0.011	-0.13	-0.142	-0.037	-0.388	-0.227	-0.289
-0.644	-0.301	0.343	0.472	-0.493	0.021	-0.126	-0.145	-0.032	-0.381	-0.217	-0.282
-0.653	-0.294	0.36	0.473	-0.507	0.033	-0.119	-0.133	-0.015	-0.364	-0.202	-0.267
-0.659	-0.287	0.371	0.473	-0.515	0.042	-0.122	-0.126	-0.009	-0.352	-0.192	-0.257
-0.665	-0.282	0.383	0.474	-0.524	0.05	-0.121	-0.12	-0.003	-0.343	-0.179	-0.246
-0.658	-0.268	0.391	0.464	-0.524	0.061	-0.121	-0.107	0.009	-0.33	-0.166	-0.229
-0.66	-0.259	0.403	0.46	-0.531	0.072	-0.116	-0.114	0.011	-0.329	-0.165	-0.23
-0.674	-0.252	0.422	0.463	-0.548	0.086	-0.107	-0.122	0.011	-0.327	-0.163	-0.226
-0.677	-0.244	0.433	0.461	-0.555	0.094	-0.11	-0.107	0.022	-0.316	-0.152	-0.217
-0.69	-0.243	0.447	0.467	-0.568	0.102	-0.103	-0.084	0.041	-0.305	-0.144	-0.214
-0.685	-0.233	0.453	0.459	-0.57	0.111	-0.096	-0.084	0.043	-0.303	-0.143	-0.214
-0.669	-0.226	0.443	0.448	-0.556	0.108	-0.101	-0.091	0.039	-0.303	-0.142	-0.21
-0.653	-0.217	0.435	0.435	-0.544	0.109	-0.106	-0.089	0.045	-0.297	-0.137	-0.205
-0.661	-0.206	0.456	0.434	-0.558	0.124	-0.105	-0.084	0.056	-0.288	-0.128	-0.198
-0.67	-0.2	0.471	0.435	-0.571	0.136	-0.101	-0.081	0.059	-0.285	-0.124	-0.194
-0.658	-0.192	0.467	0.425	-0.562	0.138	-0.107	-0.086	0.059	-0.284	-0.122	-0.192
-0.664	-0.191	0.474	0.427	-0.569	0.141	-0.11	-0.086	0.061	-0.281	-0.119	-0.188
-0.669	-0.193	0.476	0.431	-0.573	0.142	-0.103	-0.09	0.062	-0.278	-0.115	-0.186
-0.666	-0.184	0.482	0.425	-0.574	0.148	-0.103	-0.085	0.066	-0.27	-0.106	-0.181
-0.663	-0.171	0.493	0.417	-0.578	0.161	-0.102	-0.076	0.071	-0.269	-0.105	-0.18
-0.669	-0.175	0.494	0.422	-0.582	0.159	-0.11	-0.087	0.07	-0.274	-0.112	-0.184
-0.674	-0.181	0.492	0.428	-0.583	0.155	-0.111	-0.082	0.071	-0.271	-0.109	-0.181
-0.673	-0.172	0.501	0.423	-0.587	0.165	-0.1	-0.079	0.077	-0.266	-0.103	-0.175
-0.672	-0.167	0.505	0.419	-0.589	0.17	-0.101	-0.076	0.082	-0.258	-0.093	-0.167
-0.673	-0.174	0.498	0.423	-0.586	0.162	-0.102	-0.076	0.08	-0.256	-0.092	-0.163
-0.692	-0.185	0.506	0.439	-0.599	0.16	-0.1	-0.084	0.08	-0.258	-0.094	-0.165
-0.695	-0.183	0.511	0.44	-0.604	0.164	-0.102	-0.069	0.086	-0.253	-0.089	-0.162
-0.691	-0.175	0.515	0.432	-0.603	0.171	-0.103	-0.073	0.084	-0.255	-0.091	-0.162
-0.69	-0.173	0.516	0.432	-0.603	0.172	-0.105	-0.076	0.086	-0.25	-0.086	-0.157
-0.692	-0.183	0.509	0.438	-0.601	0.163	-0.102	-0.072	0.094	-0.243	-0.08	-0.152
-0.68	-0.181	0.498	0.431	-0.59	0.159	-0.102	-0.071	0.095	-0.237	-0.075	-0.149
-0.677	-0.183	0.494	0.43	-0.586	0.156	-0.105	-0.071	0.091	-0.239	-0.076	-0.147
-0.694	-0.19	0.503	0.442	-0.599	0.157	-0.102	-0.082	0.089	-0.24	-0.077	-0.146
-0.685	-0.186	0.498	0.436	-0.592	0.156	-0.111	-0.079	0.092	-0.24	-0.08	-0.151
-0.684	-0.185	0.498	0.434	-0.591	0.156	-0.11	-0.08	0.093	-0.241	-0.082	-0.155
-0.677	-0.174	0.503	0.425	-0.59	0.165	-0.104	-0.075	0.099	-0.234	-0.075	-0.149
-0.671	-0.164	0.508	0.417	-0.59	0.172	-0.102	-0.059	0.11	-0.227	-0.07	-0.146
-0.685	-0.165	0.521	0.425	-0.604	0.178	-0.099	-0.06	0.111	-0.226	-0.067	-0.144
-0.694	-0.163	0.531	0.428	-0.613	0.184	-0.102	-0.064	0.109	-0.23	-0.073	-0.149
-0.682	-0.157	0.525	0.42	-0.604	0.184	-0.112	-0.067	0.104	-0.237	-0.081	-0.159
-0.683	-0.157	0.526	0.42	-0.605	0.184	-0.111	-0.069	0.102	-0.236	-0.081	-0.155
-0.686	-0.157	0.529	0.421	-0.608	0.186	-0.106	-0.071	0.11	-0.231	-0.075	-0.15
-0.671	-0.153	0.517	0.412	-0.594	0.182	-0.116	-0.069	0.107	-0.231	-0.077	-0.153
-0.663	-0.153	0.509	0.408	-0.586	0.178	-0.121	-0.072	0.112	-0.228	-0.073	-0.151
-0.651	-0.151	0.5	0.402	-0.576	0.174	-0.119	-0.071	0.109	-0.227	-0.07	-0.149
-0.648	-0.147	0.501	0.398	-0.575	0.176	-0.122	-0.053	0.115	-0.223	-0.069	-0.146
-0.653	-0.144	0.509	0.399	-0.581	0.182	-0.123	-0.064	0.124	-0.215	-0.06	-0.139
-0.662	-0.145	0.516	0.404	-0.589	0.185	-0.121	-0.069	0.126	-0.212	-0.054	-0.135
-0.667	-0.154	0.512	0.411	-0.59	0.179	-0.12	-0.06	0.135	-0.203	-0.049	-0.132
-0.649	-0.163	0.486	0.406	-0.568	0.162	-0.116	-0.065	0.124	-0.211	-0.055	-0.136
-0.64	-0.164	0.477	0.402	-0.558	0.157	-0.122	-0.053	0.126	-0.215	-0.058	-0.138
-0.646	-0.162	0.484	0.404	-0.565	0.161	-0.117	-0.042	0.141	-0.205	-0.05	-0.133
-0.646	-0.161	0.485	0.404	-0.566	0.162	-0.117	-0.058	0.134	-0.21	-0.053	-0.136
-0.64	-0.154	0.486	0.398	-0.564	0.166	-0.124	-0.065	0.133	-0.208	-0.051	-0.133
-0.645	-0.16	0.485	0.403	-0.566	0.163	-0.124	-0.053	0.138	-0.203	-0.046	-0.128
-0.664	-0.17	0.494	0.417	-0.579	0.162	-0.13	-0.052	0.141	-0.2	-0.044	-0.127
-0.661	-0.148	0.513	0.405	-0.588	0.182	-0.123	-0.042	0.153	-0.19	-0.036	-0.122
-0.652	-0.137	0.515	0.395	-0.584	0.19	-0.121	-0.038	0.155	-0.183	-0.03	-0.117
-0.664	-0.145	0.519	0.405	-0.592	0.187	-0.131	-0.049	0.152	-0.18	-0.029	-0.116
-0.666	-0.14	0.527	0.403	-0.597	0.194	-0.139	-0.054	0.143	-0.192	-0.037	-0.124
-0.654	-0.129	0.525	0.392	-0.59	0.199	-0.141	-0.056	0.144	-0.188	-0.036	-0.123
-0.665	-0.131	0.535	0.398	-0.6	0.203	-0.141	-0.054	0.152	-0.182	-0.031	-0.12
-0.667	-0.133	0.534	0.4	-0.601	0.201	-0.144	-0.058	0.146	-0.191	-0.042	-0.131
-0.669	-0.137	0.532	0.403	-0.601	0.197	-0.146	-0.056	0.142	-0.195	-0.047	-0.137
-0.678	-0.141	0.538	0.409	-0.609	0.199	-0.145	-0.053	0.146	-0.192	-0.046	-0.139
-0.662	-0.129	0.533	0.396	-0.598	0.202	-0.14	-0.053	0.154	-0.184	-0.041	-0.133
-0.661	-0.134	0.527	0.398	-0.594	0.197	-0.143	-0.048	0.153	-0.188	-0.042	-0.134
-0.642	-0.129	0.512	0.386	-0.578	0.192	-0.151	-0.044	0.154	-0.191	-0.043	-0.136
-0.633	-0.124	0.508	0.379	-0.571	0.192	-0.152	-0.05	0.157	-0.186	-0.039	-0.133
-0.659	-0.144	0.514	0.402	-0.587	0.185	-0.148	-0.056	0.151	-0.186	-0.04	-0.135
-0.658	-0.145	0.513	0.402	-0.586	0.184	-0.146	-0.049	0.16	-0.178	-0.031	-0.126
-0.661	-0.142	0.519	0.402	-0.591	0.189	-0.146	-0.037	0.171	-0.171	-0.024	-0.117
-0.652	-0.14	0.512	0.396	-0.583	0.186	-0.144	-0.041	0.171	-0.169	-0.022	-0.115
-0.663	-0.137	0.526	0.4	-0.595	0.195	-0.141	-0.029	0.182	-0.156	-0.009	-0.104
-0.674	-0.14	0.535	0.407	-0.605	0.198	-0.137	-0.024	0.186	-0.153	-0.01	-0.106
-0.663	-0.139	0.525	0.401	-0.594	0.194	-0.143	-0.05	0.176	-0.164	-0.021	-0.115
-0.674	-0.143	0.531	0.409	-0.603	0.194	-0.147	-0.047	0.176	-0.163	-0.021	-0.118
-0.661	-0.135	0.527	0.398	-0.595	0.197	-0.142	-0.034	0.182	-0.161	-0.025	-0.124
-0.645	-0.122	0.523	0.384	-0.584	0.201	-0.148	-0.032	0.188	-0.158	-0.021	-0.121
-0.642	-0.126	0.516	0.385	-0.58	0.195	-0.151	-0.034	0.189	-0.158	-0.021	-0.121
-0.642	-0.126	0.516	0.384	-0.579	0.195	-0.154	-0.038	0.188	-0.159	-0.022	-0.124
-0.644	-0.117	0.526	0.381	-0.586	0.205	-0.155	-0.03	0.192	-0.154	-0.019	-0.121
-0.654	-0.118	0.536	0.387	-0.595	0.208	-0.145	-0.021	0.199	-0.151	-0.017	-0.119
-0.671	-0.132	0.54	0.402	-0.606	0.204	-0.142	-0.034	0.195	-0.155	-0.019	-0.123
-0.678	-0.133	0.545	0.406	-0.612	0.206	-0.145	-0.037	0.197	-0.151	-0.015	-0.12
-0.663	-0.123	0.54	0.393	-0.602	0.209	-0.14	-0.021	0.206	-0.143	-0.008	-0.114
-0.658	-0.12	0.538	0.389	-0.599	0.209	-0.131	-0.02	0.21	-0.141	-0.006	-0.113
-0.669	-0.124	0.545	0.397	-0.608	0.21	-0.14	-0.018	0.212	-0.138	-0.005	-0.112
-0.667	-0.128	0.539	0.398	-0.604	0.206	-0.141	-0.021	0.211	-0.139	-0.007	-0.113
-0.648	-0.127	0.521	0.387	-0.585	0.198	-0.139	-0.021	0.21	-0.141	-0.009	-0.114
-0.63	-0.115	0.515	0.373	-0.573	0.2	-0.141	-0.008	0.22	-0.132	0.001	-0.107
-0.647	-0.111	0.537	0.379	-0.592	0.213	-0.133	0.003	0.24	-0.113	0.015	-0.097
-0.666	-0.114	0.552	0.39	-0.61	0.22	-0.126	0.006	0.244	-0.111	0.016	-0.096
-0.668	-0.11	0.558	0.389	-0.613	0.225	-0.128	-0.003	0.236	-0.117	0.012	-0.101
-0.672	-0.11	0.563	0.391	-0.618	0.227	-0.129	0.005	0.241	-0.114	0.015	-0.099
-0.669	-0.105	0.564	0.387	-0.616	0.229	-0.126	0.018	0.251	-0.108	0.019	-0.096
-0.653	-0.094	0.559	0.374	-0.607	0.233	-0.127	0.015	0.258	-0.101	0.025	-0.09
-0.649	-0.098	0.551	0.373	-0.601	0.228	-0.127	0.013	0.257	-0.103	0.024	-0.095
-0.626	-0.097	0.529	0.361	-0.578	0.216	-0.135	0.011	0.253	-0.108	0.018	-0.102
-0.629	-0.097	0.532	0.363	-0.581	0.217	-0.136	0.004	0.254	-0.103	0.024	-0.099
-0.644	-0.097	0.547	0.37	-0.596	0.226	-0.14	0.003	0.255	-0.102	0.024	-0.1
-0.636	-0.09	0.546	0.363	-0.592	0.228	-0.144	0.011	0.256	-0.104	0.022	-0.102
-0.648	-0.089	0.558	0.368	-0.604	0.234	-0.137	0.012	0.251	-0.106	0.021	-0.104
-0.644	-0.088	0.555	0.366	-0.6	0.234	-0.137	0.007	0.257	-0.103	0.025	-0.102
-0.653	-0.086	0.567	0.369	-0.61	0.24	-0.135	0.02	0.272	-0.086	0.04	-0.088
-0.678	-0.085	0.594	0.382	-0.636	0.254	-0.132	0.024	0.278	-0.083	0.043	-0.083
-0.706	-0.09	0.616	0.398	-0.661	0.263	-0.12	0.024	0.285	-0.077	0.051	-0.075
-0.732	-0.087	0.645	0.409	-0.689	0.279	-0.107	0.059	0.303	-0.058	0.066	-0.065
-0.719	-0.087	0.631	0.403	-0.675	0.272	-0.11	0.061	0.303	-0.06	0.062	-0.07
-0.7	-0.095	0.606	0.398	-0.653	0.256	-0.116	0.038	0.292	-0.07	0.049	-0.082
-0.706	-0.098	0.608	0.402	-0.657	0.256	-0.116	0.051	0.296	-0.068	0.052	-0.082
-0.707	-0.099	0.608	0.403	-0.657	0.254	-0.111	0.069	0.31	-0.059	0.059	-0.074
-0.712	-0.103	0.609	0.408	-0.66	0.253	-0.112	0.051	0.305	-0.062	0.053	-0.081
-0.711	-0.101	0.61	0.406	-0.66	0.255	-0.115	0.049	0.302	-0.065	0.052	-0.085
-0.684	-0.084	0.601	0.384	-0.643	0.259	-0.118	0.068	0.318	-0.051	0.066	-0.076
-0.666	-0.073	0.593	0.369	-0.63	0.26	-0.116	0.07	0.32	-0.048	0.069	-0.072
-0.66	-0.079	0.582	0.369	-0.621	0.251	-0.115	0.061	0.315	-0.057	0.059	-0.082
-0.668	-0.091	0.577	0.38	-0.623	0.243	-0.127	0.053	0.312	-0.06	0.055	-0.09
-0.678	-0.088	0.591	0.384	-0.634	0.251	-0.124	0.068	0.318	-0.056	0.06	-0.085
-0.671	-0.083	0.589	0.377	-0.629	0.253	-0.123	0.069	0.32	-0.057	0.061	-0.085
-0.654	-0.079	0.576	0.366	-0.616	0.249	-0.13	0.06	0.317	-0.059	0.061	-0.084
-0.651	-0.08	0.572	0.365	-0.612	0.246	-0.127	0.062	0.316	-0.061	0.057	-0.09
-0.662	-0.085	0.578	0.373	-0.62	0.246	-0.129	0.057	0.31	-0.066	0.051	-0.095
-0.683	-0.088	0.595	0.386	-0.639	0.254	-0.127	0.068	0.319	-0.06	0.054	-0.091
-0.682	-0.09	0.592	0.387	-0.637	0.251	-0.12	0.075	0.328	-0.056	0.057	-0.093
-0.657	-0.09	0.567	0.374	-0.613	0.238	-0.128	0.072	0.327	-0.059	0.054	-0.095
-0.62	-0.089	0.531	0.354	-0.576	0.221	-0.139	0.067	0.316	-0.07	0.042	-0.107
-0.591	-0.084	0.507	0.338	-0.549	0.212	-0.146	0.059	0.304	-0.082	0.03	-0.118
-0.596	-0.081	0.514	0.338	-0.555	0.216	-0.146	0.069	0.312	-0.073	0.035	-0.116
-0.626	-0.075	0.55	0.351	-0.588	0.237	-0.128	0.083	0.333	-0.053	0.054	-0.101
-0.647	-0.084	0.564	0.365	-0.606	0.24	-0.119	0.071	0.332	-0.052	0.055	-0.099
-0.647	-0.087	0.56	0.367	-0.604	0.236	-0.112	0.083	0.339	-0.045	0.059	-0.097
-0.649	-0.082	0.568	0.366	-0.609	0.242	-0.103	0.108	0.354	-0.035	0.07	-0.089
-0.629	-0.083	0.546	0.356	-0.588	0.232	-0.115	0.102	0.345	-0.044	0.062	-0.098
-0.627	-0.087	0.54	0.357	-0.584	0.227	-0.112	0.101	0.344	-0.044	0.062	-0.098
-0.643	-0.096	0.547	0.369	-0.596	0.226	-0.105	0.107	0.352	-0.041	0.066	-0.096
-0.647	-0.095	0.552	0.37	-0.6	0.229	-0.108	0.104	0.355	-0.035	0.07	-0.09
-0.645	-0.095	0.55	0.37	-0.598	0.228	-0.11	0.105	0.357	-0.036	0.07	-0.091
-0.637	-0.086	0.55	0.361	-0.594	0.232	-0.099	0.123	0.364	-0.037	0.069	-0.091
-0.638	-0.073	0.565	0.356	-0.602	0.245	-0.089	0.127	0.366	-0.035	0.072	-0.086
-0.635	-0.072	0.563	0.354	-0.599	0.245	-0.101	0.121	0.363	-0.036	0.07	-0.09
-0.647	-0.075	0.572	0.361	-0.61	0.248	-0.099	0.126	0.367	-0.034	0.073	-0.086
-0.666	-0.081	0.586	0.373	-0.626	0.253	-0.09	0.122	0.365	-0.036	0.074	-0.085
-0.661	-0.078	0.584	0.37	-0.623	0.253	-0.094	0.123	0.364	-0.037	0.07	-0.092
-0.653	-0.072	0.582	0.363	-0.618	0.255	-0.086	0.129	0.37	-0.035	0.069	-0.096
-0.654	-0.07	0.584	0.362	-0.619	0.257	-0.081	0.135	0.37	-0.037	0.068	-0.098
-0.662	-0.076	0.585	0.369	-0.624	0.254	-0.083	0.136	0.372	-0.039	0.065	-0.104
-0.663	-0.079	0.585	0.371	-0.624	0.253	-0.08	0.132	0.374	-0.036	0.067	-0.102
-0.653	-0.076	0.577	0.364	-0.615	0.251	-0.079	0.133	0.373	-0.038	0.069	-0.097
-0.664	-0.091	0.573	0.378	-0.619	0.241	-0.07	0.135	0.371	-0.042	0.066	-0.099
-0.667	-0.098	0.571	0.383	-0.619	0.236	-0.066	0.148	0.374	-0.041	0.066	-0.097
-0.657	-0.097	0.56	0.377	-0.609	0.232	-0.072	0.151	0.379	-0.04	0.07	-0.092
-0.671	-0.104	0.567	0.388	-0.619	0.231	-0.075	0.145	0.374	-0.042	0.069	-0.092
-0.678	-0.104	0.574	0.392	-0.626	0.234	-0.07	0.145	0.372	-0.043	0.069	-0.091
-0.68	-0.11	0.571	0.396	-0.625	0.23	-0.074	0.146	0.371	-0.044	0.07	-0.087
-0.672	-0.103	0.569	0.388	-0.62	0.233	-0.08	0.144	0.368	-0.043	0.071	-0.082
-0.667	-0.09	0.576	0.379	-0.622	0.242	-0.075	0.133	0.365	-0.042	0.073	-0.079
-0.668	-0.088	0.58	0.378	-0.625	0.246	-0.075	0.144	0.366	-0.043	0.074	-0.08
-0.646	-0.077	0.569	0.362	-0.608	0.245	-0.082	0.143	0.367	-0.044	0.073	-0.078
-0.653	-0.08	0.573	0.366	-0.613	0.246	-0.089	0.139	0.363	-0.045	0.073	-0.077
-0.663	-0.086	0.578	0.374	-0.621	0.246	-0.092	0.139	0.359	-0.051	0.069	-0.08
-0.651	-0.076	0.575	0.363	-0.613	0.249	-0.093	0.133	0.354	-0.054	0.067	-0.08
-0.639	-0.072	0.568	0.355	-0.604	0.248	-0.093	0.133	0.355	-0.054	0.064	-0.082
-0.63	-0.076	0.554	0.353	-0.592	0.238	-0.099	0.135	0.348	-0.065	0.054	-0.089
-0.639	-0.084	0.556	0.361	-0.598	0.236	-0.099	0.143	0.337	-0.07	0.052	-0.088
-0.654	-0.097	0.557	0.376	-0.606	0.231	-0.099	0.131	0.342	-0.066	0.056	-0.083
-0.656	-0.099	0.557	0.378	-0.607	0.229	-0.099	0.126	0.343	-0.067	0.053	-0.085
-0.643	-0.098	0.545	0.37	-0.595	0.224	-0.102	0.126	0.331	-0.075	0.044	-0.091
-0.645	-0.102	0.543	0.374	-0.595	0.221	-0.103	0.123	0.324	-0.082	0.04	-0.093
-0.659	-0.106	0.552	0.383	-0.606	0.223	-0.088	0.121	0.32	-0.085	0.038	-0.091
-0.66	-0.113	0.547	0.387	-0.604	0.217	-0.087	0.122	0.318	-0.085	0.037	-0.09
-0.668	-0.117	0.55	0.393	-0.609	0.216	-0.087	0.121	0.314	-0.087	0.037	-0.089
-0.67	-0.125	0.545	0.398	-0.608	0.21	-0.089	0.111	0.301	-0.101	0.025	-0.098
-0.657	-0.118	0.538	0.388	-0.598	0.21	-0.092	0.105	0.297	-0.104	0.022	-0.099
-0.663	-0.113	0.55	0.388	-0.607	0.219	-0.091	0.099	0.293	-0.104	0.023	-0.093
-0.668	-0.117	0.55	0.393	-0.61	0.216	-0.088	0.093	0.278	-0.116	0.015	-0.098
-0.646	-0.117	0.528	0.382	-0.587	0.205	-0.087	0.083	0.271	-0.119	0.014	-0.097
-0.637	-0.117	0.52	0.378	-0.579	0.202	-0.091	0.086	0.273	-0.116	0.019	-0.089
-0.628	-0.112	0.517	0.37	-0.573	0.203	-0.088	0.093	0.27	-0.117	0.019	-0.088
-0.629	-0.106	0.522	0.367	-0.576	0.208	-0.095	0.074	0.261	-0.12	0.018	-0.092
-0.641	-0.111	0.531	0.376	-0.586	0.21	-0.098	0.067	0.253	-0.126	0.014	-0.093
-0.638	-0.108	0.529	0.373	-0.584	0.21	-0.096	0.059	0.243	-0.138	0.003	-0.095
-0.641	-0.111	0.53	0.377	-0.586	0.209	-0.101	0.045	0.229	-0.151	-0.008	-0.103
-0.63	-0.112	0.518	0.371	-0.574	0.203	-0.096	0.049	0.224	-0.155	-0.009	-0.102
-0.629	-0.112	0.517	0.37	-0.573	0.203	-0.091	0.048	0.222	-0.154	-0.008	-0.099
-0.645	-0.124	0.521	0.385	-0.583	0.198	-0.084	0.044	0.212	-0.164	-0.017	-0.108
-0.633	-0.118	0.514	0.376	-0.574	0.198	-0.081	0.043	0.212	-0.167	-0.019	-0.109
-0.637	-0.127	0.51	0.382	-0.574	0.192	-0.091	0.028	0.204	-0.172	-0.025	-0.114
-0.639	-0.132	0.507	0.385	-0.573	0.188	-0.087	0.029	0.201	-0.175	-0.03	-0.118
-0.621	-0.126	0.495	0.373	-0.558	0.184	-0.082	0.037	0.208	-0.168	-0.022	-0.11
-0.625	-0.14	0.486	0.383	-0.556	0.173	-0.079	0.029	0.202	-0.171	-0.023	-0.109
-0.621	-0.142	0.478	0.382	-0.55	0.168	-0.078	0.025	0.194	-0.177	-0.027	-0.108
-0.636	-0.154	0.482	0.396	-0.559	0.164	-0.08	0.025	0.188	-0.185	-0.035	-0.112
-0.636	-0.157	0.479	0.397	-0.558	0.162	-0.083	0.017	0.179	-0.191	-0.041	-0.117
-0.606	-0.156	0.45	0.381	-0.527	0.147	-0.093	0.005	0.171	-0.201	-0.05	-0.124
-0.625	-0.16	0.467	0.393	-0.546	0.153	-0.086	0.013	0.173	-0.197	-0.043	-0.117
-0.643	-0.157	0.486	0.4	-0.565	0.165	-0.071	0.009	0.173	-0.194	-0.036	-0.105
-0.609	-0.155	0.454	0.383	-0.531	0.149	-0.084	-0.003	0.159	-0.207	-0.049	-0.114
-0.605	-0.152	0.453	0.379	-0.529	0.15	-0.09	0	0.154	-0.211	-0.05	-0.115
-0.648	-0.162	0.487	0.405	-0.568	0.163	-0.081	0.002	0.156	-0.21	-0.049	-0.111
-0.65	-0.165	0.486	0.407	-0.569	0.161	-0.076	0.007	0.157	-0.212	-0.053	-0.115
-0.633	-0.159	0.474	0.396	-0.553	0.158	-0.075	-0.001	0.146	-0.224	-0.065	-0.127
-0.647	-0.162	0.485	0.405	-0.566	0.162	-0.08	-0.009	0.143	-0.228	-0.07	-0.13
-0.655	-0.175	0.479	0.415	-0.567	0.151	-0.079	-0.009	0.141	-0.233	-0.072	-0.134
-0.649	-0.182	0.467	0.416	-0.558	0.142	-0.079	-0.012	0.135	-0.236	-0.073	-0.134
-0.629	-0.181	0.448	0.406	-0.539	0.134	-0.091	-0.024	0.128	-0.239	-0.075	-0.134
-0.599	-0.173	0.425	0.386	-0.512	0.126	-0.094	-0.034	0.119	-0.243	-0.08	-0.138
-0.613	-0.172	0.44	0.393	-0.526	0.134	-0.083	-0.019	0.123	-0.239	-0.075	-0.133
-0.626	-0.188	0.438	0.407	-0.532	0.125	-0.081	-0.019	0.119	-0.245	-0.08	-0.136
-0.619	-0.194	0.424	0.406	-0.521	0.115	-0.086	-0.029	0.116	-0.243	-0.077	-0.132
-0.632	-0.202	0.43	0.417	-0.531	0.114	-0.085	-0.022	0.118	-0.243	-0.075	-0.128
-0.639	-0.208	0.431	0.423	-0.535	0.112	-0.083	-0.026	0.118	-0.241	-0.073	-0.122
-0.621	-0.202	0.419	0.411	-0.52	0.108	-0.091	-0.041	0.108	-0.248	-0.077	-0.124
-0.599	-0.193	0.406	0.396	-0.502	0.107	-0.1	-0.041	0.104	-0.253	-0.085	-0.134
-0.599	-0.19	0.41	0.394	-0.504	0.111	-0.097	-0.038	0.108	-0.247	-0.08	-0.129
-0.612	-0.192	0.42	0.402	-0.516	0.114	-0.09	-0.045	0.099	-0.257	-0.086	-0.134
-0.621	-0.199	0.423	0.409	-0.522	0.113	-0.088	-0.045	0.099	-0.257	-0.091	-0.138
-0.615	-0.206	0.408	0.41	-0.511	0.101	-0.093	-0.044	0.099	-0.257	-0.087	-0.136
-0.611	-0.208	0.402	0.409	-0.506	0.097	-0.092	-0.058	0.093	-0.261	-0.092	-0.139
-0.613	-0.209	0.404	0.41	-0.508	0.098	-0.092	-0.064	0.088	-0.261	-0.093	-0.136
-0.609	-0.206	0.404	0.407	-0.506	0.099	-0.101	-0.053	0.091	-0.255	-0.082	-0.124
-0.614	-0.201	0.413	0.407	-0.514	0.106	-0.09	-0.046	0.101	-0.252	-0.081	-0.123
-0.611	-0.191	0.419	0.401	-0.515	0.114	-0.084	-0.059	0.091	-0.258	-0.086	-0.127
-0.601	-0.192	0.409	0.396	-0.505	0.109	-0.099	-0.071	0.082	-0.26	-0.087	-0.123
-0.616	-0.197	0.419	0.406	-0.517	0.111	-0.086	-0.056	0.09	-0.258	-0.085	-0.121
-0.613	-0.192	0.421	0.403	-0.517	0.115	-0.077	-0.047	0.088	-0.26	-0.089	-0.126
-0.599	-0.185	0.413	0.392	-0.505	0.114	-0.097	-0.059	0.085	-0.265	-0.095	-0.133
-0.597	-0.18	0.416	0.389	-0.506	0.117	-0.094	-0.057	0.092	-0.258	-0.089	-0.129
-0.611	-0.191	0.419	0.401	-0.515	0.115	-0.09	-0.051	0.092	-0.26	-0.094	-0.134
-0.624	-0.203	0.42	0.413	-0.522	0.108	-0.09	-0.057	0.088	-0.263	-0.098	-0.136
-0.622	-0.207	0.414	0.414	-0.518	0.103	-0.082	-0.056	0.086	-0.261	-0.094	-0.133
-0.62	-0.208	0.412	0.414	-0.516	0.102	-0.085	-0.059	0.089	-0.263	-0.099	-0.141
-0.62	-0.206	0.414	0.413	-0.517	0.104	-0.087	-0.06	0.09	-0.259	-0.097	-0.137
-0.616	-0.202	0.413	0.408	-0.514	0.105	-0.092	-0.068	0.089	-0.26	-0.093	-0.132
-0.612	-0.199	0.412	0.405	-0.512	0.106	-0.096	-0.059	0.09	-0.262	-0.093	-0.131
-0.629	-0.202	0.427	0.415	-0.528	0.113	-0.085	-0.045	0.093	-0.256	-0.086	-0.12
-0.621	-0.194	0.426	0.407	-0.523	0.117	-0.088	-0.051	0.093	-0.254	-0.084	-0.116
-0.611	-0.194	0.417	0.403	-0.514	0.112	-0.089	-0.057	0.088	-0.258	-0.086	-0.119
-0.613	-0.198	0.415	0.405	-0.514	0.109	-0.091	-0.053	0.09	-0.255	-0.083	-0.115
-0.611	-0.197	0.415	0.404	-0.513	0.11	-0.099	-0.055	0.087	-0.259	-0.086	-0.12
-0.602	-0.19	0.411	0.396	-0.506	0.111	-0.097	-0.078	0.075	-0.268	-0.095	-0.128
-0.586	-0.186	0.4	0.386	-0.493	0.106	-0.107	-0.075	0.069	-0.275	-0.103	-0.134
-0.601	-0.192	0.409	0.396	-0.505	0.109	-0.105	-0.064	0.077	-0.27	-0.101	-0.134
-0.616	-0.192	0.424	0.404	-0.52	0.117	-0.09	-0.058	0.088	-0.256	-0.087	-0.117
-0.625	-0.206	0.418	0.415	-0.521	0.105	-0.086	-0.053	0.084	-0.262	-0.096	-0.127
-0.603	-0.206	0.397	0.405	-0.499	0.095	-0.093	-0.059	0.083	-0.264	-0.1	-0.135
-0.576	-0.198	0.378	0.387	-0.477	0.09	-0.104	-0.068	0.073	-0.273	-0.105	-0.138
-0.588	-0.214	0.374	0.401	-0.481	0.08	-0.11	-0.083	0.062	-0.283	-0.116	-0.146
-0.594	-0.214	0.38	0.404	-0.486	0.083	-0.101	-0.083	0.071	-0.273	-0.106	-0.139
-0.607	-0.221	0.386	0.413	-0.496	0.082	-0.088	-0.065	0.079	-0.265	-0.1	-0.133
-0.613	-0.227	0.387	0.419	-0.5	0.081	-0.087	-0.06	0.081	-0.26	-0.095	-0.128
-0.599	-0.216	0.383	0.408	-0.49	0.083	-0.093	-0.071	0.073	-0.265	-0.096	-0.124
-0.59	-0.214	0.376	0.402	-0.482	0.081	-0.093	-0.067	0.07	-0.267	-0.095	-0.124
-0.575	-0.206	0.369	0.391	-0.472	0.082	-0.098	-0.077	0.07	-0.267	-0.096	-0.126
-0.573	-0.205	0.367	0.389	-0.47	0.081	-0.098	-0.086	0.061	-0.275	-0.102	-0.129
-0.557	-0.202	0.355	0.38	-0.457	0.076	-0.114	-0.092	0.06	-0.276	-0.104	-0.129
-0.532	-0.195	0.337	0.363	-0.434	0.071	-0.121	-0.096	0.06	-0.273	-0.101	-0.124
-0.53	-0.194	0.336	0.362	-0.433	0.071	-0.099	-0.078	0.064	-0.27	-0.097	-0.121
-0.545	-0.189	0.356	0.367	-0.451	0.084	-0.104	-0.084	0.066	-0.271	-0.099	-0.125
-0.559	-0.185	0.373	0.372	-0.467	0.095	-0.099	-0.086	0.069	-0.269	-0.097	-0.123
-0.572	-0.184	0.387	0.378	-0.479	0.102	-0.091	-0.083	0.068	-0.271	-0.099	-0.128
-0.578	-0.176	0.401	0.377	-0.489	0.112	-0.098	-0.082	0.071	-0.267	-0.095	-0.127
-0.58	-0.182	0.398	0.381	-0.488	0.108	-0.098	-0.084	0.07	-0.267	-0.095	-0.128
-0.605	-0.196	0.408	0.4	-0.506	0.106	-0.093	-0.076	0.071	-0.272	-0.101	-0.133
-0.604	-0.191	0.413	0.398	-0.509	0.112	-0.084	-0.072	0.076	-0.272	-0.101	-0.135
-0.578	-0.2	0.379	0.389	-0.478	0.089	-0.096	-0.098	0.056	-0.287	-0.114	-0.147
-0.573	-0.207	0.365	0.39	-0.469	0.079	-0.107	-0.099	0.056	-0.286	-0.114	-0.146
-0.584	-0.207	0.378	0.396	-0.481	0.086	-0.1	-0.085	0.067	-0.277	-0.107	-0.141
-0.592	-0.215	0.377	0.404	-0.484	0.081	-0.092	-0.076	0.066	-0.279	-0.108	-0.141
-0.588	-0.213	0.374	0.401	-0.481	0.081	-0.087	-0.081	0.066	-0.276	-0.104	-0.138
-0.579	-0.217	0.362	0.398	-0.47	0.072	-0.086	-0.098	0.063	-0.273	-0.102	-0.134
-0.585	-0.222	0.362	0.404	-0.473	0.07	-0.081	-0.074	0.073	-0.266	-0.092	-0.124
-0.585	-0.22	0.364	0.403	-0.474	0.072	-0.079	-0.068	0.075	-0.262	-0.087	-0.12
-0.583	-0.222	0.361	0.403	-0.472	0.07	-0.081	-0.07	0.079	-0.26	-0.086	-0.119
-0.603	-0.231	0.372	0.416	-0.487	0.071	-0.08	-0.068	0.08	-0.262	-0.086	-0.119
-0.631	-0.243	0.387	0.438	-0.509	0.071	-0.076	-0.073	0.077	-0.261	-0.088	-0.122
-0.632	-0.24	0.393	0.436	-0.512	0.076	-0.067	-0.064	0.077	-0.258	-0.085	-0.123
-0.616	-0.233	0.383	0.424	-0.499	0.075	-0.07	-0.08	0.067	-0.267	-0.091	-0.129
-0.619	-0.228	0.392	0.423	-0.505	0.082	-0.068	-0.073	0.074	-0.269	-0.095	-0.128
-0.604	-0.226	0.378	0.415	-0.491	0.076	-0.074	-0.078	0.069	-0.273	-0.1	-0.132
-0.588	-0.227	0.361	0.407	-0.475	0.067	-0.083	-0.086	0.067	-0.274	-0.1	-0.132
-0.593	-0.227	0.366	0.41	-0.48	0.07	-0.076	-0.075	0.071	-0.271	-0.095	-0.127
-0.592	-0.227	0.365	0.409	-0.478	0.07	-0.07	-0.079	0.07	-0.272	-0.095	-0.128
-0.596	-0.221	0.375	0.408	-0.485	0.077	-0.067	-0.074	0.075	-0.268	-0.091	-0.123
-0.608	-0.224	0.384	0.416	-0.496	0.08	-0.068	-0.065	0.076	-0.269	-0.092	-0.124
-0.592	-0.222	0.37	0.406	-0.481	0.074	-0.07	-0.069	0.074	-0.271	-0.093	-0.123
-0.598	-0.225	0.373	0.411	-0.486	0.074	-0.07	-0.079	0.071	-0.272	-0.099	-0.129
-0.621	-0.231	0.391	0.425	-0.505	0.08	-0.066	-0.057	0.082	-0.266	-0.093	-0.127
-0.609	-0.228	0.382	0.418	-0.495	0.077	-0.061	-0.056	0.087	-0.261	-0.088	-0.122
-0.597	-0.228	0.369	0.412	-0.482	0.07	-0.071	-0.07	0.08	-0.263	-0.092	-0.125
-0.588	-0.217	0.37	0.403	-0.478	0.076	-0.074	-0.07	0.076	-0.265	-0.091	-0.122
-0.599	-0.207	0.392	0.404	-0.495	0.091	-0.061	-0.069	0.085	-0.256	-0.082	-0.115
-0.618	-0.224	0.395	0.42	-0.506	0.086	-0.059	-0.059	0.084	-0.258	-0.085	-0.119
-0.622	-0.23	0.393	0.426	-0.507	0.082	-0.055	-0.056	0.083	-0.258	-0.087	-0.125
-0.622	-0.224	0.398	0.422	-0.509	0.087	-0.06	-0.059	0.082	-0.26	-0.088	-0.124
-0.61	-0.218	0.392	0.414	-0.5	0.086	-0.063	-0.056	0.084	-0.263	-0.087	-0.12
-0.605	-0.215	0.39	0.41	-0.497	0.087	-0.059	-0.062	0.088	-0.258	-0.085	-0.119
-0.606	-0.212	0.394	0.409	-0.5	0.09	-0.057	-0.069	0.084	-0.261	-0.084	-0.119
-0.619	-0.218	0.401	0.418	-0.509	0.091	-0.05	-0.058	0.086	-0.259	-0.083	-0.119
-0.625	-0.22	0.405	0.422	-0.515	0.092	-0.057	-0.059	0.084	-0.263	-0.086	-0.122
-0.615	-0.205	0.409	0.41	-0.512	0.102	-0.051	-0.058	0.09	-0.257	-0.079	-0.115
-0.636	-0.222	0.414	0.429	-0.525	0.096	-0.043	-0.052	0.09	-0.257	-0.082	-0.118
-0.635	-0.224	0.412	0.429	-0.524	0.095	-0.055	-0.056	0.087	-0.262	-0.086	-0.122
-0.612	-0.21	0.401	0.411	-0.506	0.095	-0.057	-0.061	0.085	-0.263	-0.087	-0.122
-0.604	-0.218	0.385	0.411	-0.494	0.083	-0.058	-0.059	0.083	-0.265	-0.089	-0.123
-0.617	-0.22	0.397	0.418	-0.507	0.088	-0.056	-0.043	0.099	-0.251	-0.074	-0.111
-0.631	-0.223	0.409	0.427	-0.52	0.093	-0.046	-0.049	0.095	-0.254	-0.075	-0.112
-0.624	-0.221	0.404	0.422	-0.514	0.091	-0.045	-0.059	0.089	-0.255	-0.077	-0.113
-0.612	-0.217	0.395	0.414	-0.503	0.089	-0.042	-0.034	0.106	-0.239	-0.062	-0.099
-0.613	-0.234	0.378	0.423	-0.495	0.072	-0.048	-0.042	0.103	-0.243	-0.068	-0.103
-0.615	-0.235	0.379	0.425	-0.497	0.072	-0.046	-0.043	0.105	-0.24	-0.066	-0.102
-0.594	-0.216	0.378	0.406	-0.486	0.081	-0.03	-0.025	0.113	-0.234	-0.059	-0.099
-0.588	-0.21	0.378	0.399	-0.482	0.084	-0.027	-0.025	0.111	-0.237	-0.061	-0.099
-0.609	-0.209	0.4	0.409	-0.504	0.096	-0.024	-0.021	0.111	-0.239	-0.058	-0.093
-0.633	-0.222	0.411	0.427	-0.522	0.095	-0.024	-0.033	0.105	-0.245	-0.068	-0.104
-0.627	-0.217	0.41	0.422	-0.518	0.097	-0.025	-0.036	0.111	-0.24	-0.067	-0.103
-0.607	-0.203	0.404	0.405	-0.505	0.101	-0.024	-0.034	0.106	-0.245	-0.069	-0.107
-0.621	-0.214	0.406	0.417	-0.513	0.096	-0.025	-0.028	0.101	-0.253	-0.074	-0.112
-0.634	-0.213	0.42	0.424	-0.527	0.103	-0.026	-0.024	0.111	-0.243	-0.064	-0.1
-0.636	-0.203	0.432	0.42	-0.534	0.115	-0.023	-0.023	0.118	-0.232	-0.052	-0.089
-0.649	-0.205	0.444	0.427	-0.546	0.119	-0.018	-0.019	0.117	-0.233	-0.051	-0.086
-0.644	-0.203	0.442	0.424	-0.543	0.119	-0.026	-0.028	0.109	-0.242	-0.059	-0.096
-0.621	-0.203	0.417	0.411	-0.519	0.107	-0.038	-0.029	0.101	-0.252	-0.07	-0.107
-0.577	-0.203	0.374	0.39	-0.475	0.086	-0.054	-0.038	0.095	-0.257	-0.076	-0.113
-0.548	-0.192	0.356	0.37	-0.453	0.083	-0.062	-0.052	0.087	-0.26	-0.077	-0.112
-0.552	-0.183	0.369	0.367	-0.461	0.093	-0.052	-0.054	0.086	-0.259	-0.072	-0.105
-0.557	-0.182	0.375	0.37	-0.467	0.097	-0.054	-0.045	0.093	-0.254	-0.065	-0.1
-0.574	-0.185	0.388	0.38	-0.481	0.102	-0.054	-0.043	0.095	-0.252	-0.063	-0.099
-0.585	-0.192	0.394	0.389	-0.489	0.101	-0.05	-0.057	0.088	-0.254	-0.067	-0.102
-0.589	-0.205	0.385	0.397	-0.486	0.089	-0.059	-0.043	0.087	-0.259	-0.07	-0.105
-0.581	-0.198	0.383	0.39	-0.481	0.092	-0.054	-0.031	0.093	-0.257	-0.07	-0.106
-0.576	-0.189	0.387	0.382	-0.481	0.099	-0.047	-0.041	0.092	-0.257	-0.071	-0.108
-0.586	-0.203	0.383	0.395	-0.484	0.09	-0.051	-0.049	0.089	-0.259	-0.073	-0.109
-0.59	-0.203	0.388	0.396	-0.489	0.092	-0.056	-0.046	0.092	-0.258	-0.072	-0.108
-0.586	-0.196	0.391	0.391	-0.488	0.098	-0.052	-0.04	0.094	-0.26	-0.074	-0.111
-0.581	-0.195	0.387	0.388	-0.483	0.096	-0.041	-0.044	0.083	-0.269	-0.083	-0.117
-0.584	-0.198	0.386	0.391	-0.485	0.095	-0.05	-0.034	0.084	-0.266	-0.081	-0.116
-0.593	-0.201	0.392	0.397	-0.492	0.096	-0.053	-0.037	0.093	-0.259	-0.072	-0.11
-0.585	-0.191	0.395	0.388	-0.49	0.102	-0.045	-0.04	0.094	-0.256	-0.069	-0.103
-0.579	-0.191	0.389	0.385	-0.483	0.099	-0.048	-0.035	0.094	-0.258	-0.071	-0.106
-0.6	-0.204	0.396	0.402	-0.497	0.096	-0.047	-0.038	0.093	-0.259	-0.07	-0.104
-0.608	-0.209	0.399	0.409	-0.503	0.095	-0.047	-0.04	0.09	-0.258	-0.071	-0.104
-0.614	-0.206	0.407	0.41	-0.51	0.101	-0.037	-0.033	0.098	-0.252	-0.068	-0.105
-0.605	-0.202	0.403	0.403	-0.504	0.101	-0.032	-0.02	0.102	-0.247	-0.06	-0.097
-0.569	-0.205	0.363	0.387	-0.466	0.079	-0.051	-0.043	0.082	-0.269	-0.084	-0.117
-0.554	-0.217	0.337	0.386	-0.446	0.06	-0.055	-0.053	0.072	-0.282	-0.102	-0.141
-0.548	-0.21	0.339	0.38	-0.444	0.064	-0.05	-0.047	0.074	-0.28	-0.099	-0.136
-0.555	-0.204	0.351	0.38	-0.453	0.073	-0.047	-0.045	0.082	-0.27	-0.086	-0.12
-0.57	-0.205	0.364	0.388	-0.467	0.079	-0.042	-0.033	0.089	-0.261	-0.078	-0.113
-0.584	-0.215	0.368	0.4	-0.476	0.076	-0.033	-0.022	0.094	-0.256	-0.074	-0.111
-0.575	-0.222	0.352	0.398	-0.464	0.066	-0.029	-0.025	0.095	-0.252	-0.07	-0.108
-0.559	-0.22	0.339	0.39	-0.449	0.059	-0.041	-0.034	0.09	-0.252	-0.068	-0.105
-0.584	-0.237	0.347	0.41	-0.466	0.055	-0.048	-0.048	0.082	-0.256	-0.07	-0.107
-0.577	-0.229	0.348	0.403	-0.463	0.06	-0.053	-0.049	0.073	-0.261	-0.074	-0.109
-0.557	-0.21	0.347	0.384	-0.452	0.069	-0.05	-0.035	0.084	-0.254	-0.07	-0.104
-0.576	-0.21	0.365	0.393	-0.47	0.077	-0.037	-0.03	0.09	-0.251	-0.07	-0.106
-0.584	-0.22	0.364	0.402	-0.474	0.072	-0.046	-0.042	0.083	-0.257	-0.073	-0.111
-0.576	-0.221	0.355	0.399	-0.466	0.067	-0.037	-0.041	0.087	-0.257	-0.072	-0.108
-0.574	-0.206	0.367	0.39	-0.47	0.081	-0.026	-0.024	0.098	-0.248	-0.065	-0.102
-0.595	-0.216	0.379	0.405	-0.486	0.081	-0.041	-0.044	0.076	-0.262	-0.076	-0.113
-0.584	-0.21	0.374	0.397	-0.478	0.082	-0.043	-0.042	0.07	-0.269	-0.083	-0.116
-0.571	-0.195	0.377	0.383	-0.473	0.09	-0.045	-0.035	0.084	-0.262	-0.078	-0.11
-0.58	-0.2	0.38	0.39	-0.479	0.089	-0.039	-0.05	0.082	-0.264	-0.078	-0.111
-0.562	-0.194	0.368	0.379	-0.466	0.087	-0.04	-0.044	0.084	-0.261	-0.074	-0.106
-0.578	-0.198	0.381	0.388	-0.479	0.091	-0.05	-0.055	0.077	-0.264	-0.076	-0.108
-0.582	-0.199	0.384	0.39	-0.483	0.093	-0.052	-0.063	0.07	-0.266	-0.075	-0.108
-0.573	-0.197	0.376	0.385	-0.474	0.09	-0.048	-0.051	0.077	-0.263	-0.074	-0.108
-0.585	-0.208	0.377	0.397	-0.481	0.084	-0.041	-0.05	0.073	-0.268	-0.081	-0.115
-0.591	-0.213	0.378	0.402	-0.484	0.082	-0.04	-0.05	0.071	-0.267	-0.079	-0.113
-0.601	-0.218	0.383	0.409	-0.491	0.083	-0.036	-0.048	0.077	-0.262	-0.075	-0.108
-0.603	-0.221	0.382	0.412	-0.493	0.081	-0.043	-0.058	0.07	-0.268	-0.08	-0.112
-0.6	-0.213	0.386	0.406	-0.492	0.086	-0.043	-0.058	0.075	-0.263	-0.075	-0.111
-0.597	-0.215	0.382	0.406	-0.489	0.084	-0.038	-0.051	0.079	-0.258	-0.071	-0.11
-0.602	-0.223	0.379	0.412	-0.49	0.078	-0.042	-0.052	0.079	-0.26	-0.074	-0.112
-0.608	-0.227	0.381	0.417	-0.494	0.077	-0.045	-0.051	0.08	-0.261	-0.076	-0.113
-0.608	-0.228	0.381	0.418	-0.494	0.076	-0.041	-0.059	0.079	-0.262	-0.072	-0.109
-0.61	-0.231	0.379	0.42	-0.494	0.073	-0.044	-0.066	0.07	-0.272	-0.086	-0.121
-0.592	-0.228	0.364	0.41	-0.478	0.069	-0.05	-0.07	0.06	-0.277	-0.089	-0.124
-0.584	-0.228	0.356	0.406	-0.47	0.065	-0.05	-0.085	0.054	-0.274	-0.082	-0.113
-0.599	-0.235	0.364	0.417	-0.481	0.065	-0.062	-0.073	0.054	-0.274	-0.083	-0.112
-0.575	-0.231	0.344	0.403	-0.459	0.057	-0.076	-0.082	0.055	-0.274	-0.084	-0.117
-0.56	-0.224	0.337	0.392	-0.449	0.057	-0.079	-0.102	0.05	-0.273	-0.079	-0.111
-0.592	-0.215	0.376	0.404	-0.483	0.08	-0.068	-0.085	0.059	-0.266	-0.072	-0.102
-0.582	-0.215	0.366	0.398	-0.474	0.076	-0.07	-0.089	0.045	-0.284	-0.093	-0.122
-0.601	-0.217	0.384	0.409	-0.492	0.084	-0.071	-0.091	0.049	-0.279	-0.086	-0.116
-0.638	-0.212	0.425	0.425	-0.532	0.106	-0.052	-0.072	0.06	-0.265	-0.071	-0.097
-0.629	-0.211	0.418	0.42	-0.523	0.103	-0.05	-0.073	0.057	-0.272	-0.082	-0.108
-0.639	-0.224	0.415	0.431	-0.527	0.096	-0.059	-0.073	0.052	-0.282	-0.098	-0.129
-0.637	-0.229	0.408	0.433	-0.523	0.09	-0.07	-0.087	0.045	-0.285	-0.1	-0.129
-0.621	-0.219	0.402	0.419	-0.511	0.091	-0.079	-0.089	0.053	-0.275	-0.089	-0.121
-0.609	-0.224	0.385	0.416	-0.496	0.081	-0.065	-0.085	0.049	-0.281	-0.098	-0.131
-0.599	-0.231	0.369	0.414	-0.484	0.07	-0.063	-0.092	0.047	-0.282	-0.099	-0.132
-0.594	-0.228	0.366	0.41	-0.48	0.07	-0.074	-0.086	0.05	-0.28	-0.093	-0.127
-0.6	-0.226	0.374	0.413	-0.487	0.074	-0.07	-0.082	0.051	-0.275	-0.088	-0.121
-0.615	-0.232	0.383	0.423	-0.498	0.076	-0.076	-0.085	0.049	-0.273	-0.086	-0.117
-0.624	-0.234	0.389	0.429	-0.506	0.077	-0.083	-0.092	0.052	-0.267	-0.081	-0.111
-0.649	-0.23	0.42	0.44	-0.535	0.096	-0.07	-0.079	0.065	-0.256	-0.069	-0.099
-0.651	-0.231	0.42	0.441	-0.535	0.095	-0.062	-0.076	0.055	-0.267	-0.08	-0.106
-0.631	-0.222	0.409	0.427	-0.52	0.093	-0.069	-0.089	0.051	-0.272	-0.087	-0.114
-0.625	-0.204	0.421	0.415	-0.523	0.108	-0.068	-0.089	0.053	-0.275	-0.089	-0.117
-0.633	-0.205	0.428	0.419	-0.531	0.112	-0.071	-0.09	0.05	-0.279	-0.094	-0.122
-0.631	-0.206	0.424	0.418	-0.528	0.109	-0.066	-0.089	0.05	-0.28	-0.095	-0.122
-0.62	-0.215	0.404	0.417	-0.511	0.095	-0.065	-0.092	0.045	-0.284	-0.101	-0.131
-0.618	-0.231	0.387	0.424	-0.502	0.078	-0.074	-0.102	0.039	-0.287	-0.104	-0.137
-0.609	-0.231	0.378	0.419	-0.493	0.073	-0.071	-0.097	0.047	-0.278	-0.097	-0.128
-0.623	-0.24	0.383	0.431	-0.503	0.071	-0.065	-0.087	0.057	-0.267	-0.086	-0.121
-0.633	-0.251	0.383	0.442	-0.507	0.066	-0.066	-0.088	0.047	-0.276	-0.093	-0.13
-0.634	-0.257	0.378	0.446	-0.506	0.06	-0.077	-0.084	0.045	-0.282	-0.101	-0.137
-0.623	-0.255	0.368	0.439	-0.495	0.057	-0.073	-0.086	0.05	-0.279	-0.1	-0.136
-0.624	-0.249	0.374	0.437	-0.499	0.062	-0.065	-0.086	0.056	-0.274	-0.095	-0.132
-0.635	-0.253	0.384	0.444	-0.509	0.066	-0.066	-0.077	0.06	-0.268	-0.087	-0.125
-0.625	-0.253	0.373	0.439	-0.499	0.06	-0.074	-0.099	0.048	-0.272	-0.086	-0.121
-0.608	-0.247	0.36	0.427	-0.484	0.056	-0.076	-0.099	0.051	-0.269	-0.083	-0.118
-0.593	-0.241	0.351	0.417	-0.471	0.054	-0.073	-0.083	0.059	-0.269	-0.086	-0.12
-0.624	-0.251	0.372	0.437	-0.498	0.061	-0.072	-0.091	0.052	-0.271	-0.086	-0.12
-0.633	-0.246	0.387	0.44	-0.51	0.07	-0.069	-0.07	0.065	-0.259	-0.074	-0.106
-0.612	-0.246	0.365	0.429	-0.488	0.059	-0.068	-0.075	0.058	-0.265	-0.08	-0.11
-0.591	-0.243	0.347	0.417	-0.469	0.051	-0.068	-0.09	0.054	-0.267	-0.084	-0.114
-0.589	-0.242	0.346	0.415	-0.467	0.051	-0.08	-0.09	0.049	-0.274	-0.088	-0.118
-0.61	-0.246	0.363	0.427	-0.486	0.059	-0.072	-0.089	0.043	-0.281	-0.095	-0.123
-0.613	-0.236	0.377	0.424	-0.494	0.07	-0.064	-0.076	0.058	-0.276	-0.089	-0.121
-0.599	-0.231	0.368	0.415	-0.483	0.069	-0.076	-0.079	0.051	-0.286	-0.105	-0.137
-0.598	-0.229	0.368	0.413	-0.483	0.07	-0.083	-0.09	0.042	-0.297	-0.12	-0.153
-0.61	-0.237	0.373	0.423	-0.491	0.068	-0.075	-0.105	0.033	-0.303	-0.126	-0.162
-0.614	-0.231	0.384	0.422	-0.498	0.076	-0.065	-0.08	0.049	-0.287	-0.108	-0.145
-0.611	-0.23	0.381	0.42	-0.496	0.075	-0.07	-0.072	0.057	-0.28	-0.098	-0.132
-0.599	-0.23	0.369	0.414	-0.483	0.07	-0.076	-0.092	0.041	-0.292	-0.111	-0.144
-0.621	-0.242	0.379	0.431	-0.5	0.069	-0.081	-0.092	0.039	-0.29	-0.112	-0.146
-0.612	-0.244	0.367	0.428	-0.49	0.061	-0.085	-0.094	0.043	-0.285	-0.105	-0.14
-0.583	-0.225	0.357	0.404	-0.47	0.067	-0.074	-0.076	0.053	-0.276	-0.097	-0.135
-0.602	-0.239	0.362	0.42	-0.481	0.061	-0.064	-0.062	0.055	-0.271	-0.093	-0.132
-0.598	-0.239	0.359	0.418	-0.478	0.06	-0.072	-0.066	0.066	-0.262	-0.085	-0.126
-0.594	-0.241	0.352	0.417	-0.473	0.056	-0.077	-0.066	0.061	-0.266	-0.088	-0.125
-0.594	-0.251	0.343	0.422	-0.469	0.046	-0.076	-0.075	0.047	-0.277	-0.099	-0.131
-0.602	-0.249	0.352	0.425	-0.477	0.052	-0.082	-0.071	0.06	-0.265	-0.087	-0.126
-0.613	-0.257	0.356	0.434	-0.484	0.05	-0.081	-0.065	0.054	-0.273	-0.095	-0.131
-0.614	-0.265	0.349	0.439	-0.481	0.042	-0.084	-0.097	0.041	-0.286	-0.109	-0.142
-0.597	-0.247	0.349	0.422	-0.473	0.051	-0.082	-0.082	0.052	-0.277	-0.098	-0.132
-0.596	-0.226	0.369	0.411	-0.482	0.071	-0.072	-0.046	0.064	-0.269	-0.088	-0.124
-0.622	-0.229	0.393	0.425	-0.507	0.082	-0.07	-0.054	0.07	-0.264	-0.085	-0.121
-0.603	-0.215	0.388	0.409	-0.495	0.086	-0.058	-0.064	0.068	-0.262	-0.081	-0.116
-0.58	-0.21	0.369	0.395	-0.474	0.08	-0.059	-0.082	0.052	-0.275	-0.092	-0.129
-0.582	-0.215	0.367	0.399	-0.474	0.076	-0.069	-0.062	0.059	-0.275	-0.091	-0.127
-0.613	-0.233	0.38	0.423	-0.496	0.073	-0.059	-0.061	0.056	-0.275	-0.092	-0.132
-0.628	-0.246	0.382	0.438	-0.505	0.068	-0.051	-0.072	0.045	-0.285	-0.105	-0.142
-0.616	-0.235	0.38	0.425	-0.498	0.072	-0.053	-0.059	0.058	-0.282	-0.102	-0.138
-0.622	-0.24	0.381	0.431	-0.501	0.07	-0.052	-0.064	0.058	-0.278	-0.097	-0.134
-0.625	-0.251	0.374	0.438	-0.499	0.061	-0.059	-0.073	0.048	-0.284	-0.103	-0.139
-0.628	-0.269	0.36	0.449	-0.494	0.046	-0.057	-0.069	0.051	-0.286	-0.104	-0.147
-0.634	-0.273	0.362	0.454	-0.498	0.045	-0.038	-0.044	0.068	-0.269	-0.089	-0.132
-0.619	-0.253	0.366	0.435	-0.492	0.057	-0.036	-0.056	0.073	-0.261	-0.08	-0.123
-0.597	-0.245	0.351	0.421	-0.474	0.052	-0.04	-0.055	0.067	-0.268	-0.088	-0.129
-0.596	-0.249	0.346	0.422	-0.471	0.049	-0.03	-0.039	0.064	-0.276	-0.096	-0.136
-0.58	-0.242	0.338	0.411	-0.459	0.048	-0.033	-0.049	0.067	-0.276	-0.098	-0.139
-0.607	-0.246	0.361	0.426	-0.484	0.058	-0.029	-0.05	0.068	-0.271	-0.092	-0.13
-0.63	-0.248	0.382	0.44	-0.506	0.067	-0.026	-0.048	0.067	-0.269	-0.089	-0.128
-0.61	-0.247	0.361	0.428	-0.485	0.057	-0.028	-0.043	0.067	-0.271	-0.089	-0.127
-0.609	-0.252	0.356	0.43	-0.483	0.052	-0.026	-0.046	0.065	-0.274	-0.091	-0.129
-0.601	-0.256	0.344	0.428	-0.472	0.044	-0.029	-0.066	0.054	-0.281	-0.101	-0.137
-0.598	-0.257	0.341	0.427	-0.469	0.042	-0.022	-0.055	0.053	-0.281	-0.1	-0.136
-0.601	-0.26	0.341	0.43	-0.47	0.04	-0.033	-0.051	0.058	-0.279	-0.097	-0.132
-0.605	-0.266	0.34	0.436	-0.472	0.036	-0.036	-0.07	0.051	-0.282	-0.1	-0.133
-0.606	-0.256	0.35	0.431	-0.478	0.047	-0.028	-0.053	0.054	-0.279	-0.099	-0.135
-0.6	-0.257	0.344	0.428	-0.471	0.043	-0.025	-0.051	0.057	-0.28	-0.102	-0.14
-0.603	-0.258	0.345	0.43	-0.474	0.044	-0.025	-0.056	0.059	-0.279	-0.098	-0.139
-0.606	-0.249	0.356	0.427	-0.481	0.053	-0.021	-0.051	0.061	-0.276	-0.098	-0.139
-0.601	-0.239	0.362	0.42	-0.481	0.061	-0.018	-0.053	0.064	-0.273	-0.092	-0.133
-0.606	-0.241	0.364	0.423	-0.485	0.061	-0.024	-0.054	0.07	-0.262	-0.083	-0.124
-0.619	-0.254	0.364	0.436	-0.491	0.056	-0.018	-0.059	0.072	-0.258	-0.078	-0.12
-0.615	-0.255	0.36	0.435	-0.487	0.052	-0.011	-0.045	0.076	-0.252	-0.071	-0.112
-0.605	-0.258	0.347	0.431	-0.476	0.045	-0.02	-0.046	0.074	-0.259	-0.078	-0.118
-0.618	-0.27	0.348	0.444	-0.483	0.04	-0.027	-0.05	0.067	-0.268	-0.088	-0.126
-0.612	-0.261	0.351	0.436	-0.481	0.045	-0.018	-0.047	0.07	-0.262	-0.086	-0.12
-0.593	-0.239	0.353	0.416	-0.472	0.057	-0.021	-0.06	0.066	-0.266	-0.087	-0.124
-0.593	-0.237	0.355	0.415	-0.474	0.059	-0.03	-0.057	0.066	-0.263	-0.086	-0.127
-0.602	-0.242	0.359	0.421	-0.48	0.059	-0.022	-0.051	0.066	-0.265	-0.088	-0.131
-0.613	-0.242	0.371	0.427	-0.492	0.065	-0.019	-0.054	0.065	-0.265	-0.087	-0.129
-0.613	-0.241	0.372	0.427	-0.492	0.066	-0.017	-0.044	0.073	-0.256	-0.076	-0.116
-0.605	-0.247	0.357	0.425	-0.481	0.055	-0.027	-0.056	0.066	-0.263	-0.083	-0.12
-0.592	-0.248	0.344	0.42	-0.468	0.047	-0.032	-0.067	0.056	-0.271	-0.093	-0.131
-0.611	-0.251	0.36	0.431	-0.485	0.054	-0.025	-0.053	0.059	-0.273	-0.097	-0.138
-0.636	-0.253	0.383	0.445	-0.509	0.065	-0.025	-0.062	0.059	-0.276	-0.1	-0.14
-0.62	-0.246	0.373	0.433	-0.496	0.064	-0.024	-0.058	0.06	-0.273	-0.099	-0.136
-0.607	-0.248	0.358	0.427	-0.482	0.054	-0.029	-0.061	0.057	-0.272	-0.097	-0.136
-0.614	-0.248	0.365	0.431	-0.489	0.059	-0.019	-0.062	0.056	-0.271	-0.094	-0.133
-0.605	-0.235	0.37	0.42	-0.487	0.068	-0.009	-0.047	0.07	-0.263	-0.087	-0.126
-0.603	-0.235	0.367	0.419	-0.485	0.066	-0.017	-0.052	0.07	-0.266	-0.091	-0.127
-0.611	-0.237	0.373	0.424	-0.492	0.068	-0.018	-0.057	0.066	-0.268	-0.088	-0.124
-0.61	-0.235	0.374	0.422	-0.492	0.07	-0.011	-0.051	0.069	-0.265	-0.084	-0.119
-0.615	-0.242	0.372	0.428	-0.493	0.066	-0.013	-0.045	0.075	-0.257	-0.077	-0.111
-0.618	-0.238	0.379	0.428	-0.498	0.07	-0.017	-0.05	0.075	-0.254	-0.07	-0.105
-0.61	-0.227	0.383	0.418	-0.496	0.078	-0.014	-0.04	0.073	-0.257	-0.071	-0.104
-0.61	-0.234	0.376	0.421	-0.492	0.071	-0.019	-0.048	0.075	-0.254	-0.071	-0.108
-0.629	-0.245	0.384	0.438	-0.506	0.069	-0.017	-0.061	0.07	-0.253	-0.07	-0.108
-0.64	-0.243	0.397	0.442	-0.518	0.076	-0.013	-0.062	0.07	-0.255	-0.073	-0.111
-0.612	-0.234	0.378	0.423	-0.494	0.071	-0.019	-0.055	0.073	-0.257	-0.078	-0.12
-0.606	-0.239	0.367	0.422	-0.487	0.065	-0.015	-0.04	0.08	-0.253	-0.079	-0.125
-0.625	-0.242	0.383	0.434	-0.504	0.07	-0.015	-0.043	0.088	-0.245	-0.073	-0.125
-0.631	-0.233	0.4	0.432	-0.515	0.084	-0.012	-0.041	0.097	-0.231	-0.06	-0.114
-0.633	-0.231	0.403	0.432	-0.518	0.086	-0.019	-0.053	0.099	-0.223	-0.052	-0.107
-0.603	-0.219	0.384	0.411	-0.493	0.082	-0.032	-0.04	0.116	-0.203	-0.036	-0.099
-0.593	-0.21	0.382	0.402	-0.487	0.086	-0.025	-0.034	0.127	-0.191	-0.032	-0.103
-0.603	-0.218	0.385	0.41	-0.494	0.084	-0.034	-0.057	0.123	-0.188	-0.029	-0.107
-0.593	-0.207	0.386	0.4	-0.489	0.089	-0.032	-0.041	0.149	-0.161	-0.009	-0.092
-0.579	-0.184	0.395	0.382	-0.487	0.105	-0.019	-0.024	0.175	-0.134	0.013	-0.082
-0.58	-0.186	0.394	0.383	-0.486	0.104	-0.03	-0.028	0.193	-0.108	0.032	-0.071
-0.574	-0.186	0.388	0.38	-0.481	0.101	-0.046	-0.032	0.208	-0.086	0.046	-0.065
-0.557	-0.18	0.377	0.369	-0.468	0.099	-0.049	-0.022	0.235	-0.06	0.067	-0.055
-0.564	-0.175	0.389	0.369	-0.476	0.106	-0.044	-0.004	0.275	-0.024	0.096	-0.039
-0.572	-0.165	0.407	0.368	-0.49	0.121	-0.046	0.011	0.304	0.013	0.128	-0.015
-0.553	-0.159	0.395	0.356	-0.474	0.117	-0.046	0.015	0.311	0.026	0.14	-0.006
-0.535	-0.156	0.38	0.345	-0.457	0.112	-0.046	0	0.303	0.021	0.134	-0.013
-0.553	-0.157	0.396	0.355	-0.474	0.119	-0.048	-0.007	0.297	0.012	0.128	-0.013
-0.572	-0.163	0.409	0.367	-0.491	0.123	-0.046	-0.002	0.277	-0.015	0.106	-0.026
-0.578	-0.167	0.412	0.372	-0.495	0.123	-0.048	-0.003	0.257	-0.041	0.085	-0.042
-0.584	-0.159	0.424	0.371	-0.504	0.133	-0.035	-0.018	0.228	-0.07	0.06	-0.056
-0.598	-0.154	0.444	0.376	-0.52	0.144	-0.034	-0.037	0.183	-0.107	0.035	-0.065
-0.598	-0.151	0.446	0.374	-0.521	0.147	-0.038	-0.044	0.151	-0.14	0.013	-0.077
-0.593	-0.149	0.444	0.371	-0.518	0.147	-0.029	-0.049	0.126	-0.169	-0.009	-0.091
-0.611	-0.146	0.464	0.379	-0.537	0.159	-0.026	-0.056	0.108	-0.184	-0.011	-0.076
-0.591	-0.137	0.455	0.363	-0.522	0.159	-0.026	-0.08	0.076	-0.217	-0.026	-0.068
-0.601	-0.132	0.469	0.366	-0.535	0.169	-0.018	-0.095	0.045	-0.249	-0.044	-0.06
-0.623	-0.14	0.483	0.382	-0.552	0.172	-0.018	-0.107	0.018	-0.277	-0.056	-0.051
-0.587	-0.157	0.43	0.372	-0.508	0.137	-0.022	-0.106	-0.009	-0.32	-0.08	-0.048
-0.559	-0.164	0.395	0.361	-0.477	0.116	-0.023	-0.093	-0.016	-0.341	-0.086	-0.028
-0.541	-0.174	0.367	0.357	-0.455	0.097	-0.028	-0.103	-0.038	-0.365	-0.091	-0.017
-0.535	-0.19	0.346	0.362	-0.441	0.079	-0.032	-0.084	-0.064	-0.404	-0.11	-0.009
-0.535	-0.199	0.337	0.367	-0.436	0.07	-0.03	-0.053	-0.081	-0.456	-0.141	-0.007
