0.713	0.147	-0.565	-0.43	0.638	-0.208	-0.145	-0.255	-0.036	0.266	-0.218	-0.212
0.717	0.145	-0.571	-0.431	0.644	-0.213	-0.163	-0.262	-0.039	0.264	-0.218	-0.213
0.721	0.144	-0.576	-0.432	0.647	-0.215	-0.158	-0.258	-0.042	0.261	-0.22	-0.215
0.726	0.149	-0.577	-0.438	0.651	-0.213	-0.144	-0.257	-0.045	0.26	-0.217	-0.209
0.725	0.148	-0.577	-0.436	0.65	-0.214	-0.139	-0.26	-0.047	0.259	-0.22	-0.21
0.714	0.144	-0.569	-0.428	0.641	-0.212	-0.145	-0.26	-0.049	0.259	-0.222	-0.214
0.712	0.141	-0.57	-0.426	0.64	-0.214	-0.15	-0.263	-0.045	0.26	-0.219	-0.209
0.711	0.141	-0.569	-0.426	0.639	-0.213	-0.146	-0.261	-0.045	0.26	-0.22	-0.209
0.709	0.141	-0.568	-0.424	0.638	-0.214	-0.147	-0.263	-0.051	0.256	-0.223	-0.211
0.71	0.141	-0.569	-0.425	0.639	-0.213	-0.15	-0.263	-0.049	0.257	-0.222	-0.211
0.708	0.14	-0.568	-0.423	0.637	-0.214	-0.145	-0.263	-0.05	0.261	-0.219	-0.209
0.707	0.136	-0.571	-0.421	0.638	-0.217	-0.148	-0.264	-0.051	0.262	-0.218	-0.208
0.724	0.145	-0.58	-0.434	0.651	-0.217	-0.159	-0.263	-0.049	0.264	-0.216	-0.208
0.718	0.143	-0.574	-0.43	0.645	-0.215	-0.151	-0.263	-0.047	0.265	-0.214	-0.207
0.704	0.136	-0.567	-0.419	0.635	-0.215	-0.147	-0.265	-0.05	0.262	-0.217	-0.21
0.713	0.136	-0.577	-0.424	0.644	-0.22	-0.147	-0.269	-0.054	0.26	-0.218	-0.211
0.705	0.134	-0.571	-0.419	0.637	-0.218	-0.147	-0.269	-0.053	0.261	-0.218	-0.21
0.716	0.141	-0.575	-0.427	0.645	-0.217	-0.161	-0.272	-0.054	0.262	-0.216	-0.207
0.714	0.137	-0.577	-0.424	0.644	-0.22	-0.154	-0.274	-0.056	0.259	-0.218	-0.207
0.714	0.142	-0.572	-0.427	0.642	-0.215	-0.146	-0.273	-0.056	0.255	-0.222	-0.209
0.725	0.15	-0.575	-0.438	0.649	-0.212	-0.152	-0.275	-0.058	0.257	-0.221	-0.208
0.715	0.144	-0.571	-0.429	0.642	-0.213	-0.151	-0.27	-0.056	0.259	-0.221	-0.21
0.713	0.142	-0.571	-0.427	0.641	-0.214	-0.154	-0.274	-0.059	0.256	-0.223	-0.214
0.704	0.139	-0.566	-0.421	0.634	-0.213	-0.152	-0.278	-0.06	0.257	-0.225	-0.213
0.709	0.146	-0.562	-0.427	0.635	-0.208	-0.146	-0.269	-0.053	0.262	-0.217	-0.209
0.718	0.15	-0.567	-0.434	0.642	-0.208	-0.154	-0.272	-0.056	0.261	-0.22	-0.21
0.718	0.147	-0.57	-0.432	0.643	-0.211	-0.157	-0.275	-0.059	0.26	-0.222	-0.212
0.722	0.151	-0.571	-0.436	0.646	-0.209	-0.152	-0.273	-0.057	0.263	-0.22	-0.208
0.721	0.149	-0.572	-0.435	0.646	-0.211	-0.15	-0.277	-0.059	0.262	-0.221	-0.209
0.716	0.144	-0.571	-0.43	0.643	-0.213	-0.159	-0.282	-0.065	0.256	-0.224	-0.216
0.719	0.145	-0.574	-0.431	0.645	-0.214	-0.169	-0.284	-0.068	0.252	-0.227	-0.217
0.715	0.146	-0.568	-0.43	0.641	-0.211	-0.153	-0.279	-0.067	0.256	-0.223	-0.211
0.709	0.144	-0.564	-0.426	0.635	-0.209	-0.146	-0.279	-0.065	0.257	-0.221	-0.209
0.715	0.144	-0.571	-0.429	0.642	-0.213	-0.153	-0.282	-0.07	0.252	-0.224	-0.214
0.715	0.143	-0.572	-0.429	0.643	-0.214	-0.154	-0.282	-0.07	0.254	-0.223	-0.215
0.711	0.14	-0.571	-0.425	0.64	-0.215	-0.153	-0.281	-0.068	0.257	-0.221	-0.214
0.724	0.145	-0.578	-0.434	0.65	-0.216	-0.153	-0.283	-0.068	0.259	-0.217	-0.211
0.726	0.145	-0.58	-0.435	0.652	-0.217	-0.156	-0.283	-0.067	0.261	-0.216	-0.21
0.713	0.137	-0.576	-0.424	0.644	-0.22	-0.162	-0.289	-0.071	0.258	-0.22	-0.213
0.715	0.138	-0.577	-0.425	0.645	-0.22	-0.16	-0.287	-0.073	0.258	-0.219	-0.212
0.718	0.141	-0.577	-0.429	0.647	-0.218	-0.151	-0.285	-0.074	0.258	-0.219	-0.211
0.707	0.136	-0.571	-0.421	0.639	-0.217	-0.161	-0.292	-0.072	0.255	-0.224	-0.216
0.705	0.137	-0.568	-0.42	0.635	-0.215	-0.15	-0.284	-0.071	0.257	-0.222	-0.215
0.731	0.147	-0.584	-0.439	0.656	-0.218	-0.157	-0.288	-0.075	0.253	-0.222	-0.212
0.726	0.142	-0.584	-0.434	0.655	-0.221	-0.168	-0.293	-0.076	0.251	-0.225	-0.214
0.703	0.135	-0.568	-0.418	0.635	-0.216	-0.15	-0.286	-0.074	0.254	-0.222	-0.213
0.705	0.133	-0.572	-0.418	0.637	-0.22	-0.164	-0.296	-0.083	0.248	-0.226	-0.214
0.699	0.127	-0.572	-0.412	0.635	-0.223	-0.162	-0.294	-0.08	0.251	-0.226	-0.214
0.704	0.132	-0.572	-0.417	0.637	-0.22	-0.15	-0.281	-0.071	0.258	-0.22	-0.21
0.71	0.135	-0.576	-0.422	0.642	-0.221	-0.151	-0.286	-0.079	0.256	-0.22	-0.211
0.708	0.132	-0.576	-0.419	0.642	-0.222	-0.155	-0.29	-0.082	0.254	-0.222	-0.211
0.71	0.128	-0.583	-0.418	0.646	-0.228	-0.167	-0.292	-0.085	0.251	-0.223	-0.21
0.711	0.126	-0.585	-0.417	0.647	-0.23	-0.158	-0.293	-0.086	0.252	-0.224	-0.213
0.711	0.127	-0.584	-0.418	0.646	-0.229	-0.162	-0.29	-0.085	0.251	-0.227	-0.217
0.703	0.121	-0.582	-0.412	0.642	-0.231	-0.164	-0.291	-0.086	0.247	-0.226	-0.218
0.703	0.122	-0.582	-0.412	0.642	-0.23	-0.156	-0.295	-0.087	0.248	-0.227	-0.214
0.706	0.124	-0.582	-0.414	0.643	-0.229	-0.159	-0.296	-0.087	0.248	-0.226	-0.214
0.707	0.125	-0.582	-0.415	0.644	-0.228	-0.154	-0.29	-0.082	0.251	-0.226	-0.213
0.714	0.13	-0.585	-0.421	0.649	-0.228	-0.164	-0.292	-0.085	0.249	-0.224	-0.21
0.717	0.134	-0.584	-0.425	0.65	-0.225	-0.165	-0.293	-0.086	0.248	-0.223	-0.212
0.713	0.135	-0.578	-0.423	0.645	-0.222	-0.152	-0.291	-0.085	0.248	-0.225	-0.212
0.713	0.132	-0.581	-0.422	0.646	-0.225	-0.16	-0.298	-0.089	0.242	-0.23	-0.218
0.713	0.131	-0.582	-0.421	0.647	-0.226	-0.16	-0.298	-0.091	0.24	-0.235	-0.223
0.71	0.132	-0.578	-0.42	0.643	-0.224	-0.153	-0.297	-0.091	0.243	-0.234	-0.221
0.71	0.129	-0.58	-0.419	0.644	-0.226	-0.159	-0.301	-0.094	0.243	-0.234	-0.221
0.708	0.128	-0.581	-0.417	0.644	-0.227	-0.164	-0.303	-0.097	0.243	-0.233	-0.219
0.711	0.131	-0.58	-0.42	0.644	-0.225	-0.157	-0.3	-0.092	0.245	-0.228	-0.217
0.712	0.132	-0.58	-0.421	0.645	-0.224	-0.162	-0.301	-0.095	0.243	-0.231	-0.217
0.713	0.13	-0.583	-0.421	0.647	-0.227	-0.167	-0.304	-0.098	0.24	-0.234	-0.218
0.71	0.126	-0.584	-0.417	0.646	-0.229	-0.165	-0.304	-0.097	0.24	-0.233	-0.219
0.713	0.127	-0.587	-0.419	0.649	-0.23	-0.164	-0.306	-0.101	0.237	-0.235	-0.223
0.724	0.132	-0.592	-0.427	0.657	-0.23	-0.159	-0.303	-0.101	0.236	-0.235	-0.223
0.711	0.126	-0.585	-0.418	0.647	-0.23	-0.161	-0.301	-0.1	0.236	-0.234	-0.222
0.703	0.121	-0.582	-0.412	0.642	-0.23	-0.167	-0.312	-0.107	0.232	-0.239	-0.226
0.71	0.127	-0.583	-0.418	0.645	-0.228	-0.169	-0.312	-0.111	0.227	-0.239	-0.227
0.704	0.122	-0.582	-0.412	0.642	-0.23	-0.16	-0.3	-0.1	0.231	-0.238	-0.229
0.706	0.126	-0.58	-0.415	0.642	-0.227	-0.159	-0.302	-0.1	0.236	-0.236	-0.227
0.706	0.13	-0.577	-0.417	0.641	-0.224	-0.158	-0.303	-0.103	0.236	-0.234	-0.223
0.702	0.126	-0.576	-0.413	0.638	-0.225	-0.159	-0.301	-0.102	0.234	-0.239	-0.227
0.707	0.127	-0.581	-0.416	0.643	-0.227	-0.158	-0.303	-0.103	0.234	-0.244	-0.23
0.71	0.124	-0.585	-0.417	0.646	-0.23	-0.164	-0.305	-0.104	0.233	-0.244	-0.228
0.71	0.129	-0.581	-0.418	0.645	-0.227	-0.163	-0.304	-0.102	0.234	-0.243	-0.227
0.704	0.126	-0.578	-0.414	0.641	-0.226	-0.15	-0.304	-0.104	0.234	-0.242	-0.228
0.703	0.124	-0.578	-0.413	0.64	-0.227	-0.164	-0.31	-0.107	0.234	-0.242	-0.227
0.706	0.126	-0.58	-0.415	0.642	-0.228	-0.168	-0.314	-0.106	0.234	-0.243	-0.225
0.711	0.13	-0.581	-0.419	0.645	-0.226	-0.158	-0.307	-0.104	0.235	-0.239	-0.222
0.711	0.129	-0.582	-0.419	0.646	-0.227	-0.162	-0.306	-0.105	0.234	-0.238	-0.221
0.707	0.122	-0.585	-0.414	0.645	-0.231	-0.169	-0.319	-0.113	0.229	-0.242	-0.223
0.705	0.126	-0.579	-0.415	0.641	-0.227	-0.162	-0.318	-0.112	0.227	-0.241	-0.221
0.704	0.133	-0.572	-0.418	0.637	-0.22	-0.154	-0.302	-0.104	0.233	-0.237	-0.216
0.706	0.133	-0.573	-0.419	0.639	-0.221	-0.157	-0.304	-0.106	0.23	-0.24	-0.219
0.712	0.134	-0.578	-0.422	0.644	-0.222	-0.162	-0.307	-0.106	0.23	-0.237	-0.221
0.713	0.134	-0.579	-0.423	0.645	-0.222	-0.159	-0.306	-0.106	0.232	-0.237	-0.22
0.709	0.131	-0.578	-0.419	0.643	-0.224	-0.16	-0.313	-0.11	0.227	-0.24	-0.224
0.706	0.128	-0.579	-0.416	0.641	-0.226	-0.17	-0.312	-0.11	0.227	-0.24	-0.225
0.703	0.126	-0.578	-0.414	0.64	-0.227	-0.161	-0.309	-0.111	0.226	-0.24	-0.223
0.706	0.127	-0.579	-0.416	0.642	-0.226	-0.154	-0.308	-0.109	0.228	-0.239	-0.222
0.71	0.128	-0.582	-0.418	0.645	-0.227	-0.16	-0.309	-0.11	0.228	-0.239	-0.222
0.722	0.134	-0.588	-0.427	0.654	-0.227	-0.158	-0.308	-0.112	0.228	-0.238	-0.222
0.714	0.13	-0.584	-0.421	0.648	-0.227	-0.166	-0.314	-0.113	0.228	-0.238	-0.225
0.7	0.125	-0.575	-0.412	0.637	-0.225	-0.159	-0.31	-0.11	0.229	-0.24	-0.227
0.698	0.124	-0.574	-0.411	0.636	-0.225	-0.163	-0.31	-0.11	0.23	-0.239	-0.228
0.704	0.129	-0.576	-0.416	0.639	-0.224	-0.173	-0.318	-0.111	0.228	-0.238	-0.225
0.715	0.133	-0.582	-0.423	0.648	-0.225	-0.155	-0.311	-0.11	0.227	-0.24	-0.226
0.71	0.129	-0.582	-0.419	0.645	-0.227	-0.16	-0.312	-0.114	0.224	-0.245	-0.229
0.711	0.13	-0.581	-0.42	0.645	-0.225	-0.164	-0.312	-0.112	0.226	-0.24	-0.225
0.712	0.13	-0.583	-0.42	0.647	-0.227	-0.166	-0.311	-0.113	0.223	-0.243	-0.226
0.709	0.127	-0.582	-0.417	0.644	-0.228	-0.164	-0.315	-0.116	0.221	-0.248	-0.23
0.701	0.119	-0.581	-0.41	0.64	-0.231	-0.158	-0.317	-0.118	0.218	-0.248	-0.232
0.704	0.121	-0.583	-0.412	0.643	-0.231	-0.166	-0.318	-0.118	0.216	-0.249	-0.23
0.716	0.129	-0.587	-0.422	0.651	-0.229	-0.16	-0.313	-0.114	0.22	-0.244	-0.228
0.712	0.126	-0.587	-0.418	0.649	-0.231	-0.16	-0.314	-0.117	0.218	-0.245	-0.23
0.706	0.123	-0.583	-0.414	0.644	-0.23	-0.159	-0.313	-0.117	0.22	-0.246	-0.232
0.706	0.124	-0.582	-0.415	0.643	-0.229	-0.165	-0.314	-0.116	0.221	-0.244	-0.23
0.703	0.125	-0.578	-0.414	0.64	-0.227	-0.168	-0.317	-0.115	0.22	-0.249	-0.234
0.693	0.118	-0.574	-0.406	0.633	-0.228	-0.158	-0.316	-0.118	0.217	-0.255	-0.238
0.696	0.119	-0.577	-0.407	0.636	-0.229	-0.162	-0.322	-0.12	0.217	-0.256	-0.237
0.709	0.128	-0.581	-0.417	0.644	-0.227	-0.161	-0.319	-0.116	0.224	-0.25	-0.233
0.701	0.126	-0.575	-0.413	0.637	-0.225	-0.157	-0.322	-0.117	0.225	-0.249	-0.234
0.698	0.124	-0.574	-0.411	0.635	-0.225	-0.166	-0.327	-0.117	0.224	-0.25	-0.236
0.703	0.127	-0.576	-0.415	0.639	-0.225	-0.168	-0.317	-0.116	0.226	-0.246	-0.233
0.703	0.126	-0.577	-0.414	0.639	-0.226	-0.158	-0.319	-0.118	0.224	-0.247	-0.231
0.713	0.129	-0.584	-0.42	0.648	-0.228	-0.164	-0.325	-0.121	0.221	-0.246	-0.23
0.701	0.12	-0.58	-0.41	0.64	-0.23	-0.175	-0.325	-0.122	0.222	-0.247	-0.232
0.692	0.12	-0.572	-0.406	0.631	-0.226	-0.166	-0.319	-0.117	0.224	-0.246	-0.229
0.705	0.127	-0.578	-0.416	0.641	-0.226	-0.172	-0.318	-0.117	0.225	-0.242	-0.224
0.699	0.122	-0.577	-0.41	0.637	-0.228	-0.166	-0.318	-0.117	0.223	-0.243	-0.226
0.703	0.126	-0.578	-0.414	0.64	-0.226	-0.158	-0.317	-0.118	0.222	-0.242	-0.225
0.711	0.126	-0.585	-0.418	0.648	-0.23	-0.17	-0.324	-0.122	0.22	-0.245	-0.227
0.703	0.121	-0.582	-0.411	0.642	-0.231	-0.162	-0.326	-0.124	0.217	-0.248	-0.231
0.694	0.116	-0.578	-0.405	0.636	-0.231	-0.159	-0.324	-0.121	0.22	-0.244	-0.228
0.694	0.118	-0.576	-0.406	0.635	-0.229	-0.165	-0.32	-0.118	0.224	-0.24	-0.227
0.702	0.122	-0.58	-0.412	0.641	-0.229	-0.168	-0.323	-0.121	0.222	-0.242	-0.229
0.708	0.122	-0.585	-0.415	0.646	-0.231	-0.173	-0.328	-0.122	0.222	-0.243	-0.231
0.706	0.128	-0.579	-0.416	0.642	-0.226	-0.174	-0.323	-0.117	0.226	-0.24	-0.226
0.705	0.125	-0.58	-0.414	0.642	-0.228	-0.158	-0.322	-0.119	0.224	-0.242	-0.228
0.712	0.125	-0.587	-0.418	0.649	-0.231	-0.164	-0.326	-0.12	0.222	-0.245	-0.231
0.706	0.124	-0.582	-0.415	0.643	-0.229	-0.17	-0.32	-0.117	0.225	-0.244	-0.229
0.7	0.121	-0.578	-0.41	0.638	-0.229	-0.155	-0.318	-0.115	0.226	-0.244	-0.229
0.706	0.126	-0.58	-0.415	0.642	-0.227	-0.163	-0.318	-0.114	0.229	-0.241	-0.226
0.705	0.124	-0.581	-0.414	0.642	-0.229	-0.164	-0.319	-0.117	0.225	-0.243	-0.227
0.7	0.119	-0.581	-0.409	0.639	-0.231	-0.158	-0.319	-0.119	0.224	-0.247	-0.228
0.702	0.12	-0.582	-0.411	0.641	-0.231	-0.168	-0.319	-0.118	0.223	-0.248	-0.228
0.703	0.119	-0.584	-0.411	0.643	-0.232	-0.166	-0.322	-0.119	0.221	-0.251	-0.232
0.707	0.124	-0.584	-0.415	0.645	-0.23	-0.158	-0.315	-0.118	0.223	-0.247	-0.229
0.705	0.124	-0.581	-0.414	0.642	-0.229	-0.164	-0.318	-0.118	0.22	-0.249	-0.231
0.703	0.127	-0.577	-0.414	0.639	-0.225	-0.17	-0.32	-0.12	0.221	-0.251	-0.232
0.705	0.136	-0.57	-0.42	0.637	-0.217	-0.16	-0.312	-0.116	0.227	-0.244	-0.227
0.713	0.147	-0.565	-0.429	0.638	-0.209	-0.156	-0.31	-0.103	0.233	-0.238	-0.222
0.72	0.157	-0.564	-0.438	0.641	-0.203	-0.16	-0.307	-0.101	0.237	-0.234	-0.22
0.705	0.15	-0.554	-0.427	0.629	-0.202	-0.167	-0.308	-0.102	0.238	-0.235	-0.221
0.706	0.155	-0.55	-0.43	0.627	-0.197	-0.17	-0.306	-0.099	0.241	-0.231	-0.217
0.715	0.166	-0.548	-0.44	0.631	-0.191	-0.155	-0.301	-0.093	0.246	-0.225	-0.214
0.717	0.173	-0.543	-0.445	0.629	-0.185	-0.155	-0.296	-0.087	0.249	-0.222	-0.209
0.717	0.176	-0.541	-0.446	0.629	-0.182	-0.155	-0.294	-0.086	0.248	-0.221	-0.209
0.717	0.177	-0.539	-0.447	0.628	-0.181	-0.153	-0.298	-0.086	0.249	-0.221	-0.21
0.715	0.181	-0.534	-0.448	0.624	-0.176	-0.151	-0.291	-0.082	0.255	-0.217	-0.207
0.709	0.177	-0.531	-0.443	0.62	-0.176	-0.148	-0.285	-0.076	0.259	-0.214	-0.208
0.707	0.177	-0.528	-0.442	0.618	-0.175	-0.15	-0.289	-0.08	0.255	-0.216	-0.21
0.71	0.182	-0.527	-0.446	0.619	-0.173	-0.147	-0.289	-0.082	0.253	-0.216	-0.21
0.72	0.188	-0.532	-0.453	0.625	-0.172	-0.16	-0.291	-0.082	0.256	-0.215	-0.212
0.714	0.186	-0.527	-0.45	0.621	-0.171	-0.153	-0.284	-0.08	0.259	-0.213	-0.21
0.711	0.189	-0.522	-0.45	0.616	-0.167	-0.147	-0.281	-0.076	0.262	-0.209	-0.207
0.708	0.19	-0.518	-0.448	0.613	-0.164	-0.16	-0.282	-0.075	0.262	-0.21	-0.207
0.714	0.194	-0.52	-0.454	0.617	-0.163	-0.158	-0.283	-0.074	0.261	-0.211	-0.206
0.727	0.2	-0.527	-0.463	0.626	-0.164	-0.16	-0.293	-0.08	0.256	-0.214	-0.207
0.719	0.202	-0.517	-0.46	0.618	-0.158	-0.147	-0.278	-0.072	0.261	-0.21	-0.205
0.72	0.202	-0.518	-0.461	0.619	-0.159	-0.139	-0.273	-0.069	0.264	-0.207	-0.201
0.726	0.203	-0.523	-0.465	0.625	-0.16	-0.15	-0.28	-0.07	0.263	-0.207	-0.201
0.73	0.212	-0.517	-0.471	0.623	-0.152	-0.147	-0.272	-0.064	0.269	-0.2	-0.196
0.725	0.212	-0.512	-0.469	0.618	-0.15	-0.14	-0.268	-0.064	0.27	-0.197	-0.193
0.723	0.21	-0.513	-0.466	0.618	-0.151	-0.137	-0.264	-0.059	0.27	-0.203	-0.2
0.73	0.211	-0.519	-0.47	0.624	-0.154	-0.139	-0.263	-0.06	0.269	-0.206	-0.202
0.726	0.206	-0.519	-0.466	0.623	-0.157	-0.14	-0.259	-0.059	0.269	-0.204	-0.198
0.719	0.203	-0.516	-0.461	0.617	-0.157	-0.13	-0.256	-0.056	0.27	-0.204	-0.201
0.713	0.198	-0.515	-0.455	0.613	-0.159	-0.137	-0.262	-0.06	0.266	-0.207	-0.204
0.716	0.2	-0.515	-0.458	0.616	-0.158	-0.151	-0.263	-0.06	0.266	-0.206	-0.203
0.728	0.212	-0.515	-0.47	0.622	-0.151	-0.157	-0.262	-0.059	0.269	-0.204	-0.201
0.73	0.217	-0.512	-0.473	0.621	-0.147	-0.157	-0.266	-0.06	0.269	-0.206	-0.202
0.722	0.22	-0.501	-0.47	0.612	-0.141	-0.147	-0.264	-0.058	0.269	-0.203	-0.2
0.718	0.227	-0.492	-0.472	0.605	-0.133	-0.161	-0.27	-0.058	0.272	-0.2	-0.198
0.722	0.235	-0.486	-0.478	0.604	-0.126	-0.177	-0.276	-0.059	0.276	-0.198	-0.195
0.723	0.24	-0.482	-0.481	0.603	-0.121	-0.189	-0.279	-0.059	0.277	-0.197	-0.195
0.726	0.242	-0.483	-0.483	0.604	-0.12	-0.198	-0.284	-0.061	0.277	-0.197	-0.194
0.727	0.252	-0.475	-0.489	0.601	-0.112	-0.197	-0.285	-0.059	0.282	-0.193	-0.19
0.722	0.256	-0.467	-0.488	0.594	-0.105	-0.208	-0.292	-0.06	0.283	-0.191	-0.189
0.72	0.252	-0.468	-0.485	0.594	-0.108	-0.212	-0.302	-0.068	0.279	-0.193	-0.19
0.718	0.251	-0.467	-0.483	0.593	-0.108	-0.212	-0.304	-0.069	0.275	-0.193	-0.189
0.72	0.251	-0.469	-0.484	0.594	-0.109	-0.216	-0.308	-0.071	0.275	-0.194	-0.189
0.72	0.25	-0.47	-0.485	0.595	-0.11	-0.221	-0.311	-0.077	0.272	-0.195	-0.19
0.72	0.252	-0.468	-0.485	0.594	-0.108	-0.224	-0.315	-0.08	0.272	-0.193	-0.188
0.726	0.258	-0.468	-0.491	0.597	-0.105	-0.217	-0.314	-0.075	0.277	-0.191	-0.182
0.724	0.258	-0.465	-0.49	0.595	-0.103	-0.213	-0.307	-0.071	0.28	-0.185	-0.177
0.729	0.259	-0.469	-0.493	0.599	-0.105	-0.214	-0.307	-0.071	0.281	-0.185	-0.178
0.728	0.255	-0.473	-0.491	0.601	-0.11	-0.217	-0.311	-0.075	0.28	-0.188	-0.18
0.732	0.256	-0.476	-0.493	0.604	-0.111	-0.22	-0.311	-0.073	0.281	-0.188	-0.18
0.741	0.272	-0.469	-0.506	0.605	-0.099	-0.217	-0.306	-0.07	0.286	-0.181	-0.174
0.733	0.268	-0.465	-0.5	0.599	-0.099	-0.221	-0.302	-0.064	0.288	-0.181	-0.175
0.739	0.269	-0.47	-0.503	0.604	-0.101	-0.22	-0.297	-0.055	0.291	-0.181	-0.175
0.734	0.274	-0.46	-0.504	0.597	-0.093	-0.212	-0.296	-0.057	0.295	-0.174	-0.169
0.731	0.27	-0.461	-0.5	0.596	-0.096	-0.218	-0.299	-0.059	0.294	-0.175	-0.171
0.737	0.268	-0.468	-0.502	0.602	-0.1	-0.223	-0.303	-0.059	0.291	-0.176	-0.172
0.738	0.267	-0.471	-0.502	0.604	-0.102	-0.217	-0.303	-0.061	0.292	-0.175	-0.172
0.751	0.274	-0.476	-0.512	0.614	-0.102	-0.214	-0.296	-0.053	0.299	-0.169	-0.166
0.754	0.274	-0.48	-0.514	0.617	-0.103	-0.214	-0.292	-0.05	0.298	-0.169	-0.163
0.747	0.269	-0.478	-0.507	0.613	-0.104	-0.211	-0.29	-0.051	0.298	-0.172	-0.167
0.748	0.266	-0.482	-0.506	0.615	-0.108	-0.218	-0.289	-0.051	0.297	-0.172	-0.169
0.758	0.266	-0.492	-0.511	0.625	-0.113	-0.22	-0.296	-0.058	0.294	-0.174	-0.169
0.764	0.27	-0.495	-0.516	0.629	-0.113	-0.213	-0.296	-0.061	0.293	-0.174	-0.167
0.766	0.271	-0.495	-0.518	0.63	-0.112	-0.209	-0.293	-0.059	0.293	-0.172	-0.162
0.766	0.271	-0.495	-0.518	0.63	-0.112	-0.21	-0.295	-0.059	0.296	-0.17	-0.159
0.764	0.264	-0.5	-0.514	0.632	-0.118	-0.21	-0.297	-0.06	0.295	-0.171	-0.162
0.771	0.256	-0.515	-0.513	0.643	-0.13	-0.211	-0.297	-0.061	0.291	-0.175	-0.164
0.777	0.255	-0.522	-0.516	0.649	-0.134	-0.216	-0.297	-0.061	0.293	-0.172	-0.162
0.767	0.251	-0.516	-0.509	0.641	-0.133	-0.21	-0.301	-0.061	0.293	-0.17	-0.162
0.767	0.244	-0.522	-0.505	0.644	-0.139	-0.212	-0.301	-0.066	0.287	-0.175	-0.164
0.774	0.245	-0.528	-0.509	0.651	-0.141	-0.205	-0.3	-0.069	0.283	-0.176	-0.163
0.762	0.242	-0.519	-0.502	0.64	-0.139	-0.209	-0.308	-0.074	0.281	-0.178	-0.164
0.76	0.24	-0.52	-0.5	0.64	-0.14	-0.216	-0.312	-0.078	0.279	-0.181	-0.165
0.76	0.235	-0.524	-0.497	0.642	-0.144	-0.214	-0.319	-0.083	0.277	-0.182	-0.164
0.76	0.236	-0.525	-0.498	0.642	-0.144	-0.223	-0.325	-0.088	0.275	-0.186	-0.166
0.767	0.241	-0.526	-0.503	0.646	-0.142	-0.22	-0.326	-0.09	0.275	-0.186	-0.167
0.759	0.239	-0.52	-0.499	0.639	-0.14	-0.219	-0.327	-0.087	0.28	-0.182	-0.167
0.758	0.241	-0.517	-0.499	0.637	-0.138	-0.225	-0.329	-0.087	0.28	-0.18	-0.168
0.763	0.242	-0.521	-0.503	0.642	-0.14	-0.227	-0.334	-0.091	0.28	-0.178	-0.167
0.769	0.242	-0.527	-0.506	0.648	-0.142	-0.228	-0.336	-0.091	0.28	-0.179	-0.168
0.761	0.235	-0.526	-0.498	0.643	-0.145	-0.218	-0.33	-0.09	0.277	-0.182	-0.171
0.749	0.227	-0.522	-0.488	0.635	-0.147	-0.216	-0.328	-0.091	0.277	-0.184	-0.173
0.747	0.222	-0.525	-0.484	0.635	-0.151	-0.216	-0.332	-0.094	0.274	-0.188	-0.178
0.743	0.217	-0.525	-0.48	0.634	-0.153	-0.205	-0.325	-0.091	0.274	-0.187	-0.18
0.735	0.207	-0.527	-0.47	0.63	-0.16	-0.195	-0.32	-0.087	0.274	-0.192	-0.186
0.723	0.191	-0.532	-0.457	0.627	-0.171	-0.19	-0.317	-0.09	0.267	-0.201	-0.194
0.728	0.184	-0.543	-0.456	0.635	-0.179	-0.191	-0.319	-0.098	0.26	-0.203	-0.197
0.734	0.182	-0.551	-0.458	0.642	-0.184	-0.19	-0.32	-0.099	0.258	-0.203	-0.198
0.733	0.174	-0.558	-0.453	0.645	-0.192	-0.188	-0.32	-0.102	0.253	-0.206	-0.201
0.729	0.167	-0.561	-0.448	0.644	-0.197	-0.187	-0.323	-0.106	0.246	-0.213	-0.205
0.727	0.165	-0.562	-0.446	0.644	-0.2	-0.195	-0.331	-0.113	0.243	-0.219	-0.208
0.726	0.16	-0.566	-0.443	0.646	-0.203	-0.197	-0.337	-0.119	0.237	-0.223	-0.211
0.715	0.155	-0.56	-0.435	0.637	-0.203	-0.181	-0.328	-0.116	0.236	-0.226	-0.212
0.711	0.146	-0.564	-0.428	0.637	-0.208	-0.169	-0.331	-0.123	0.23	-0.231	-0.217
0.713	0.143	-0.569	-0.428	0.641	-0.212	-0.176	-0.334	-0.124	0.226	-0.234	-0.22
0.712	0.14	-0.572	-0.425	0.641	-0.216	-0.182	-0.336	-0.128	0.221	-0.238	-0.221
0.71	0.135	-0.575	-0.422	0.642	-0.221	-0.18	-0.338	-0.13	0.218	-0.241	-0.225
0.71	0.135	-0.575	-0.422	0.641	-0.22	-0.184	-0.332	-0.127	0.22	-0.241	-0.227
0.711	0.134	-0.577	-0.422	0.643	-0.222	-0.173	-0.331	-0.129	0.218	-0.244	-0.229
0.702	0.129	-0.573	-0.415	0.637	-0.222	-0.171	-0.328	-0.125	0.222	-0.242	-0.228
0.697	0.123	-0.574	-0.41	0.635	-0.226	-0.177	-0.329	-0.127	0.223	-0.244	-0.228
0.71	0.128	-0.582	-0.418	0.645	-0.228	-0.173	-0.331	-0.128	0.223	-0.243	-0.228
0.707	0.121	-0.585	-0.413	0.645	-0.232	-0.177	-0.336	-0.134	0.216	-0.25	-0.234
0.699	0.119	-0.58	-0.409	0.639	-0.23	-0.172	-0.335	-0.132	0.217	-0.252	-0.237
0.704	0.126	-0.578	-0.414	0.64	-0.227	-0.168	-0.331	-0.127	0.221	-0.247	-0.234
0.705	0.12	-0.584	-0.412	0.644	-0.232	-0.174	-0.338	-0.136	0.214	-0.254	-0.237
0.703	0.115	-0.588	-0.408	0.644	-0.236	-0.178	-0.34	-0.138	0.214	-0.255	-0.238
0.701	0.114	-0.587	-0.407	0.643	-0.236	-0.181	-0.34	-0.138	0.214	-0.254	-0.237
0.711	0.121	-0.589	-0.415	0.649	-0.234	-0.176	-0.34	-0.136	0.214	-0.253	-0.235
0.712	0.119	-0.593	-0.415	0.652	-0.237	-0.173	-0.336	-0.135	0.217	-0.249	-0.233
0.705	0.114	-0.591	-0.408	0.647	-0.238	-0.172	-0.332	-0.136	0.215	-0.249	-0.233
0.706	0.114	-0.592	-0.409	0.648	-0.239	-0.169	-0.334	-0.136	0.215	-0.248	-0.233
0.701	0.107	-0.594	-0.405	0.647	-0.243	-0.173	-0.338	-0.138	0.214	-0.249	-0.234
0.703	0.109	-0.594	-0.406	0.648	-0.242	-0.172	-0.336	-0.135	0.215	-0.251	-0.236
0.707	0.111	-0.596	-0.408	0.651	-0.242	-0.166	-0.338	-0.138	0.214	-0.252	-0.237
0.7	0.104	-0.596	-0.402	0.647	-0.245	-0.173	-0.338	-0.139	0.212	-0.255	-0.238
0.699	0.103	-0.596	-0.401	0.647	-0.246	-0.166	-0.333	-0.136	0.214	-0.252	-0.239
0.709	0.106	-0.603	-0.407	0.655	-0.248	-0.168	-0.336	-0.14	0.215	-0.252	-0.237
0.706	0.107	-0.598	-0.406	0.651	-0.245	-0.17	-0.335	-0.13	0.218	-0.249	-0.237
0.706	0.108	-0.598	-0.406	0.651	-0.245	-0.17	-0.328	-0.128	0.22	-0.247	-0.237
0.707	0.107	-0.6	-0.407	0.653	-0.246	-0.176	-0.331	-0.132	0.216	-0.249	-0.237
0.703	0.111	-0.593	-0.406	0.647	-0.241	-0.161	-0.331	-0.131	0.215	-0.248	-0.237
0.701	0.107	-0.594	-0.404	0.647	-0.243	-0.167	-0.333	-0.134	0.214	-0.251	-0.241
0.693	0.101	-0.592	-0.397	0.642	-0.245	-0.167	-0.333	-0.135	0.211	-0.255	-0.244
0.698	0.103	-0.594	-0.4	0.645	-0.245	-0.166	-0.331	-0.134	0.21	-0.256	-0.244
0.7	0.108	-0.592	-0.404	0.645	-0.241	-0.162	-0.33	-0.129	0.213	-0.252	-0.242
0.694	0.108	-0.586	-0.401	0.639	-0.238	-0.151	-0.325	-0.127	0.215	-0.252	-0.242
0.699	0.107	-0.592	-0.403	0.645	-0.242	-0.163	-0.326	-0.133	0.212	-0.255	-0.243
0.693	0.099	-0.594	-0.396	0.643	-0.247	-0.168	-0.332	-0.137	0.206	-0.259	-0.245
0.673	0.087	-0.586	-0.38	0.629	-0.249	-0.159	-0.331	-0.136	0.206	-0.262	-0.248
0.693	0.102	-0.592	-0.397	0.642	-0.245	-0.166	-0.329	-0.133	0.209	-0.26	-0.244
0.704	0.107	-0.597	-0.405	0.65	-0.245	-0.168	-0.33	-0.137	0.207	-0.261	-0.245
0.695	0.101	-0.594	-0.398	0.643	-0.246	-0.152	-0.33	-0.139	0.206	-0.261	-0.247
0.703	0.103	-0.6	-0.403	0.651	-0.248	-0.157	-0.33	-0.137	0.208	-0.259	-0.242
0.699	0.1	-0.599	-0.399	0.648	-0.249	-0.165	-0.333	-0.139	0.206	-0.26	-0.242
0.705	0.106	-0.599	-0.405	0.652	-0.247	-0.163	-0.332	-0.139	0.208	-0.257	-0.24
0.708	0.106	-0.603	-0.406	0.655	-0.248	-0.163	-0.335	-0.14	0.206	-0.256	-0.241
0.704	0.105	-0.599	-0.404	0.65	-0.246	-0.162	-0.33	-0.135	0.209	-0.254	-0.239
0.703	0.107	-0.596	-0.405	0.649	-0.244	-0.155	-0.321	-0.129	0.214	-0.249	-0.236
0.698	0.102	-0.597	-0.4	0.647	-0.247	-0.158	-0.326	-0.131	0.212	-0.251	-0.237
0.699	0.103	-0.596	-0.401	0.647	-0.246	-0.158	-0.326	-0.134	0.211	-0.25	-0.236
0.698	0.102	-0.596	-0.4	0.647	-0.247	-0.16	-0.327	-0.136	0.208	-0.254	-0.24
0.696	0.101	-0.595	-0.398	0.644	-0.247	-0.163	-0.332	-0.137	0.204	-0.26	-0.244
0.695	0.104	-0.592	-0.399	0.643	-0.243	-0.155	-0.327	-0.135	0.206	-0.258	-0.242
0.702	0.106	-0.596	-0.404	0.648	-0.245	-0.166	-0.331	-0.135	0.206	-0.256	-0.242
0.705	0.107	-0.598	-0.406	0.651	-0.245	-0.166	-0.334	-0.137	0.205	-0.259	-0.246
0.697	0.106	-0.591	-0.401	0.643	-0.242	-0.152	-0.328	-0.136	0.207	-0.258	-0.246
0.691	0.103	-0.588	-0.397	0.639	-0.242	-0.151	-0.327	-0.134	0.207	-0.257	-0.244
0.695	0.105	-0.59	-0.4	0.642	-0.242	-0.154	-0.323	-0.131	0.211	-0.254	-0.242
0.693	0.105	-0.588	-0.398	0.64	-0.241	-0.158	-0.325	-0.132	0.21	-0.255	-0.242
0.681	0.097	-0.585	-0.389	0.632	-0.244	-0.157	-0.329	-0.138	0.206	-0.261	-0.245
0.682	0.1	-0.582	-0.391	0.631	-0.241	-0.152	-0.328	-0.136	0.207	-0.258	-0.243
0.687	0.1	-0.587	-0.393	0.636	-0.244	-0.153	-0.33	-0.136	0.205	-0.259	-0.243
0.686	0.097	-0.59	-0.391	0.637	-0.247	-0.159	-0.333	-0.14	0.201	-0.266	-0.249
0.682	0.097	-0.586	-0.389	0.633	-0.244	-0.154	-0.327	-0.137	0.203	-0.265	-0.249
0.684	0.098	-0.586	-0.391	0.634	-0.244	-0.157	-0.331	-0.134	0.205	-0.262	-0.246
0.695	0.105	-0.59	-0.4	0.641	-0.242	-0.162	-0.33	-0.131	0.209	-0.262	-0.246
0.702	0.112	-0.59	-0.406	0.645	-0.238	-0.156	-0.328	-0.132	0.211	-0.258	-0.245
0.702	0.113	-0.589	-0.407	0.645	-0.237	-0.163	-0.334	-0.136	0.21	-0.256	-0.243
0.694	0.103	-0.59	-0.399	0.641	-0.243	-0.158	-0.323	-0.126	0.213	-0.259	-0.248
0.692	0.104	-0.587	-0.398	0.639	-0.241	-0.152	-0.325	-0.126	0.217	-0.255	-0.247
0.688	0.106	-0.582	-0.397	0.634	-0.237	-0.159	-0.328	-0.129	0.216	-0.252	-0.244
0.688	0.104	-0.584	-0.396	0.635	-0.239	-0.159	-0.328	-0.128	0.214	-0.254	-0.246
0.692	0.105	-0.586	-0.398	0.638	-0.24	-0.158	-0.331	-0.131	0.212	-0.256	-0.247
0.693	0.104	-0.589	-0.399	0.64	-0.242	-0.154	-0.324	-0.13	0.213	-0.255	-0.246
0.695	0.104	-0.591	-0.4	0.643	-0.243	-0.154	-0.323	-0.129	0.215	-0.252	-0.245
0.689	0.102	-0.587	-0.396	0.637	-0.242	-0.157	-0.327	-0.13	0.213	-0.255	-0.246
0.688	0.104	-0.583	-0.396	0.635	-0.239	-0.164	-0.326	-0.127	0.212	-0.255	-0.246
0.685	0.116	-0.57	-0.401	0.627	-0.227	-0.144	-0.306	-0.115	0.22	-0.25	-0.246
0.68	0.128	-0.552	-0.404	0.616	-0.212	-0.137	-0.299	-0.111	0.22	-0.253	-0.25
0.671	0.136	-0.535	-0.403	0.603	-0.2	-0.143	-0.294	-0.109	0.211	-0.263	-0.259
0.655	0.144	-0.51	-0.4	0.583	-0.183	-0.116	-0.268	-0.099	0.209	-0.269	-0.263
0.639	0.153	-0.486	-0.396	0.562	-0.166	-0.107	-0.249	-0.096	0.2	-0.28	-0.272
0.623	0.171	-0.453	-0.396	0.537	-0.141	-0.097	-0.219	-0.081	0.194	-0.291	-0.285
0.609	0.195	-0.413	-0.402	0.51	-0.109	-0.059	-0.181	-0.059	0.194	-0.297	-0.291
0.592	0.222	-0.37	-0.406	0.48	-0.074	-0.027	-0.144	-0.04	0.192	-0.303	-0.297
0.576	0.251	-0.325	-0.413	0.45	-0.037	-0.005	-0.099	-0.009	0.195	-0.308	-0.304
0.559	0.27	-0.29	-0.414	0.424	-0.01	0.006	-0.067	0.006	0.186	-0.323	-0.317
0.549	0.283	-0.267	-0.416	0.407	0.009	0.036	-0.031	0.023	0.183	-0.335	-0.33
0.542	0.294	-0.248	-0.418	0.395	0.023	0.071	0.011	0.05	0.183	-0.343	-0.338
0.533	0.305	-0.229	-0.419	0.381	0.038	0.096	0.057	0.067	0.175	-0.353	-0.348
0.523	0.307	-0.216	-0.415	0.369	0.045	0.124	0.099	0.092	0.183	-0.353	-0.354
0.518	0.311	-0.207	-0.415	0.362	0.052	0.144	0.133	0.124	0.204	-0.346	-0.355
0.516	0.318	-0.199	-0.417	0.357	0.06	0.17	0.187	0.173	0.228	-0.337	-0.358
0.516	0.31	-0.205	-0.413	0.36	0.052	0.199	0.245	0.235	0.248	-0.334	-0.363
0.538	0.319	-0.22	-0.428	0.379	0.049	0.209	0.295	0.299	0.284	-0.312	-0.353
0.569	0.335	-0.234	-0.451	0.401	0.05	0.202	0.32	0.354	0.336	-0.271	-0.323
0.609	0.33	-0.28	-0.469	0.444	0.025	0.183	0.33	0.397	0.391	-0.221	-0.285
0.663	0.323	-0.34	-0.492	0.501	-0.009	0.159	0.347	0.461	0.461	-0.159	-0.242
0.716	0.349	-0.366	-0.532	0.541	-0.009	0.124	0.357	0.528	0.534	-0.089	-0.187
0.763	0.386	-0.377	-0.575	0.57	0.004	0.073	0.356	0.591	0.615	-0.007	-0.125
0.809	0.403	-0.407	-0.606	0.608	-0.002	0.04	0.354	0.639	0.688	0.068	-0.069
0.865	0.406	-0.459	-0.635	0.661	-0.026	0.021	0.363	0.681	0.76	0.14	-0.018
0.921	0.395	-0.526	-0.658	0.724	-0.066	-0.013	0.359	0.739	0.848	0.225	0.041
0.983	0.4	-0.583	-0.691	0.783	-0.091	-0.054	0.351	0.785	0.938	0.32	0.111
1.052	0.428	-0.624	-0.74	0.838	-0.098	-0.116	0.306	0.835	1.067	0.451	0.2
1.12	0.455	-0.664	-0.787	0.892	-0.105	-0.19	0.207	0.856	1.206	0.596	0.3
1.183	0.521	-0.662	-0.852	0.922	-0.07	-0.299	0.034	0.791	1.321	0.745	0.412
1.248	0.599	-0.649	-0.923	0.949	-0.025	-0.425	-0.186	0.703	1.451	0.899	0.526
1.306	0.648	-0.658	-0.977	0.982	-0.005	-0.519	-0.348	0.651	1.593	1.052	0.63
1.355	0.674	-0.68	-1.014	1.017	-0.003	-0.619	-0.538	0.594	1.727	1.192	0.726
1.402	0.642	-0.76	-1.022	1.081	-0.059	-0.698	-0.68	0.557	1.848	1.304	0.798
1.433	0.51	-0.922	-0.971	1.177	-0.205	-0.681	-0.725	0.519	1.931	1.373	0.829
1.465	0.345	-1.12	-0.905	1.292	-0.388	-0.645	-0.771	0.482	2.005	1.429	0.851
1.494	0.197	-1.298	-0.846	1.396	-0.55	-0.63	-0.804	0.491	2.091	1.48	0.868
1.506	0.059	-1.448	-0.782	1.477	-0.694	-0.611	-0.865	0.462	2.138	1.486	0.856
1.532	-0.012	-1.544	-0.76	1.538	-0.777	-0.632	-0.955	0.422	2.193	1.505	0.864
1.547	-0.072	-1.619	-0.737	1.583	-0.846	-0.648	-1.027	0.387	2.233	1.518	0.876
1.556	-0.117	-1.674	-0.72	1.615	-0.895	-0.666	-1.105	0.362	2.273	1.517	0.882
1.556	-0.163	-1.719	-0.697	1.637	-0.941	-0.65	-1.144	0.325	2.272	1.478	0.869
1.54	-0.247	-1.787	-0.645	1.663	-1.017	-0.61	-1.168	0.239	2.168	1.367	0.819
1.509	-0.291	-1.8	-0.609	1.654	-1.045	-0.598	-1.226	0.126	2.041	1.25	0.768
1.454	-0.311	-1.766	-0.572	1.61	-1.038	-0.578	-1.309	-0.068	1.849	1.108	0.709
1.405	-0.312	-1.717	-0.546	1.56	-1.014	-0.577	-1.417	-0.277	1.652	0.964	0.646
1.337	-0.277	-1.614	-0.53	1.476	-0.945	-0.569	-1.482	-0.472	1.429	0.793	0.574
1.259	-0.26	-1.518	-0.499	1.389	-0.888	-0.527	-1.521	-0.676	1.172	0.605	0.492
1.196	-0.257	-1.454	-0.469	1.325	-0.855	-0.497	-1.573	-0.854	0.946	0.451	0.419
1.123	-0.231	-1.354	-0.446	1.238	-0.792	-0.491	-1.611	-1.003	0.704	0.28	0.334
1.04	-0.193	-1.234	-0.423	1.137	-0.713	-0.475	-1.609	-1.117	0.491	0.128	0.247
0.965	-0.169	-1.134	-0.398	1.049	-0.651	-0.429	-1.587	-1.22	0.258	-0.038	0.15
0.891	-0.154	-1.046	-0.368	0.969	-0.6	-0.389	-1.558	-1.331	-0.043	-0.251	0.032
0.821	-0.15	-0.971	-0.335	0.896	-0.56	-0.361	-1.52	-1.413	-0.299	-0.432	-0.074
0.768	-0.173	-0.941	-0.297	0.855	-0.557	-0.311	-1.473	-1.452	-0.464	-0.552	-0.16
0.742	-0.194	-0.935	-0.274	0.839	-0.565	-0.256	-1.413	-1.437	-0.529	-0.612	-0.216
0.72	-0.196	-0.915	-0.262	0.817	-0.555	-0.225	-1.361	-1.375	-0.521	-0.634	-0.253
0.693	-0.208	-0.901	-0.242	0.797	-0.555	-0.212	-1.321	-1.319	-0.508	-0.645	-0.284
0.674	-0.231	-0.905	-0.222	0.789	-0.568	-0.2	-1.278	-1.268	-0.506	-0.659	-0.315
0.659	-0.257	-0.915	-0.201	0.786	-0.585	-0.173	-1.236	-1.21	-0.494	-0.667	-0.34
0.642	-0.285	-0.927	-0.178	0.785	-0.606	-0.15	-1.2	-1.157	-0.476	-0.672	-0.361
0.638	-0.301	-0.939	-0.169	0.788	-0.62	-0.139	-1.17	-1.109	-0.464	-0.674	-0.379
0.628	-0.313	-0.942	-0.158	0.784	-0.626	-0.144	-1.154	-1.073	-0.448	-0.672	-0.393
0.613	-0.305	-0.918	-0.153	0.765	-0.612	-0.158	-1.135	-1.035	-0.42	-0.669	-0.412
0.6	-0.292	-0.892	-0.153	0.746	-0.592	-0.176	-1.121	-1.002	-0.393	-0.66	-0.425
0.59	-0.283	-0.874	-0.153	0.732	-0.578	-0.198	-1.111	-0.975	-0.37	-0.651	-0.431
0.586	-0.27	-0.856	-0.158	0.721	-0.563	-0.211	-1.095	-0.943	-0.345	-0.638	-0.434
0.588	-0.26	-0.848	-0.164	0.718	-0.554	-0.228	-1.075	-0.91	-0.321	-0.624	-0.438
0.584	-0.247	-0.832	-0.168	0.707	-0.539	-0.234	-1.048	-0.869	-0.29	-0.608	-0.437
0.583	-0.225	-0.807	-0.179	0.695	-0.516	-0.229	-1.012	-0.824	-0.256	-0.586	-0.428
0.592	-0.203	-0.793	-0.195	0.692	-0.498	-0.228	-0.97	-0.777	-0.224	-0.564	-0.418
0.593	-0.185	-0.778	-0.204	0.685	-0.481	-0.217	-0.925	-0.726	-0.192	-0.541	-0.41
0.591	-0.168	-0.759	-0.211	0.674	-0.464	-0.212	-0.888	-0.684	-0.162	-0.523	-0.407
0.593	-0.149	-0.742	-0.222	0.667	-0.446	-0.225	-0.857	-0.643	-0.134	-0.505	-0.398
0.611	-0.111	-0.722	-0.25	0.666	-0.416	-0.23	-0.815	-0.595	-0.099	-0.475	-0.379
0.624	-0.087	-0.711	-0.268	0.667	-0.4	-0.233	-0.774	-0.548	-0.069	-0.452	-0.363
0.637	-0.071	-0.709	-0.283	0.672	-0.39	-0.217	-0.713	-0.49	-0.03	-0.425	-0.346
0.657	-0.041	-0.698	-0.308	0.677	-0.369	-0.2	-0.644	-0.427	0.013	-0.396	-0.328
0.666	-0.015	-0.682	-0.325	0.674	-0.349	-0.184	-0.58	-0.37	0.047	-0.37	-0.313
0.675	0.009	-0.666	-0.342	0.67	-0.329	-0.177	-0.527	-0.32	0.08	-0.347	-0.296
0.686	0.03	-0.655	-0.358	0.67	-0.312	-0.173	-0.487	-0.275	0.105	-0.326	-0.284
0.695	0.046	-0.648	-0.37	0.671	-0.301	-0.149	-0.441	-0.238	0.129	-0.309	-0.274
0.697	0.055	-0.642	-0.376	0.669	-0.293	-0.143	-0.42	-0.218	0.141	-0.303	-0.27
0.696	0.062	-0.633	-0.379	0.664	-0.285	-0.141	-0.399	-0.196	0.153	-0.296	-0.267
0.696	0.073	-0.623	-0.385	0.659	-0.275	-0.142	-0.381	-0.175	0.168	-0.286	-0.261
0.697	0.083	-0.614	-0.39	0.655	-0.266	-0.146	-0.373	-0.163	0.177	-0.28	-0.259
0.696	0.095	-0.601	-0.396	0.648	-0.253	-0.14	-0.353	-0.145	0.189	-0.271	-0.254
0.7	0.11	-0.591	-0.405	0.645	-0.24	-0.147	-0.343	-0.131	0.2	-0.262	-0.248
0.702	0.117	-0.585	-0.408	0.643	-0.234	-0.153	-0.336	-0.118	0.209	-0.255	-0.243
0.701	0.122	-0.578	-0.411	0.639	-0.228	-0.156	-0.326	-0.103	0.218	-0.246	-0.238
0.7	0.126	-0.575	-0.412	0.637	-0.225	-0.157	-0.321	-0.098	0.223	-0.243	-0.235
0.702	0.127	-0.575	-0.414	0.638	-0.224	-0.158	-0.317	-0.096	0.22	-0.246	-0.237
0.707	0.13	-0.577	-0.417	0.641	-0.224	-0.154	-0.309	-0.09	0.224	-0.242	-0.234
0.709	0.132	-0.577	-0.42	0.642	-0.223	-0.154	-0.303	-0.086	0.226	-0.241	-0.231
0.704	0.128	-0.576	-0.415	0.64	-0.225	-0.172	-0.308	-0.087	0.223	-0.244	-0.235
0.697	0.125	-0.572	-0.41	0.634	-0.224	-0.152	-0.3	-0.081	0.228	-0.241	-0.233
0.695	0.128	-0.568	-0.411	0.631	-0.22	-0.137	-0.289	-0.071	0.233	-0.236	-0.23
0.693	0.121	-0.572	-0.407	0.632	-0.225	-0.145	-0.291	-0.072	0.232	-0.237	-0.232
0.697	0.121	-0.576	-0.409	0.636	-0.227	-0.149	-0.291	-0.073	0.23	-0.24	-0.231
0.707	0.131	-0.576	-0.418	0.641	-0.223	-0.152	-0.285	-0.066	0.234	-0.236	-0.23
0.7	0.13	-0.57	-0.414	0.634	-0.22	-0.152	-0.288	-0.064	0.234	-0.235	-0.232
0.691	0.129	-0.562	-0.409	0.626	-0.216	-0.154	-0.283	-0.057	0.24	-0.232	-0.231
0.704	0.139	-0.566	-0.421	0.634	-0.213	-0.149	-0.28	-0.051	0.245	-0.23	-0.228
0.714	0.141	-0.572	-0.427	0.642	-0.215	-0.158	-0.281	-0.058	0.24	-0.234	-0.23
0.709	0.145	-0.563	-0.426	0.635	-0.209	-0.154	-0.268	-0.049	0.248	-0.228	-0.229
0.702	0.147	-0.555	-0.424	0.628	-0.204	-0.143	-0.266	-0.045	0.249	-0.228	-0.23
0.703	0.145	-0.557	-0.423	0.629	-0.206	-0.151	-0.271	-0.048	0.245	-0.231	-0.233
0.703	0.145	-0.557	-0.423	0.629	-0.206	-0.151	-0.271	-0.046	0.245	-0.231	-0.231
0.695	0.143	-0.551	-0.419	0.623	-0.204	-0.151	-0.27	-0.044	0.246	-0.232	-0.233
0.707	0.148	-0.559	-0.427	0.632	-0.205	-0.16	-0.27	-0.043	0.246	-0.231	-0.231
0.716	0.154	-0.562	-0.434	0.638	-0.204	-0.156	-0.264	-0.038	0.249	-0.225	-0.228
0.706	0.155	-0.55	-0.43	0.628	-0.198	-0.149	-0.259	-0.032	0.255	-0.221	-0.225
0.706	0.157	-0.549	-0.431	0.627	-0.197	-0.152	-0.257	-0.032	0.256	-0.219	-0.225
0.713	0.159	-0.554	-0.435	0.633	-0.198	-0.157	-0.257	-0.03	0.255	-0.219	-0.225
0.709	0.154	-0.554	-0.431	0.631	-0.2	-0.163	-0.263	-0.033	0.256	-0.221	-0.224
0.709	0.158	-0.551	-0.432	0.629	-0.197	-0.16	-0.254	-0.026	0.261	-0.218	-0.223
0.711	0.163	-0.548	-0.436	0.629	-0.193	-0.153	-0.253	-0.023	0.264	-0.215	-0.221
0.708	0.161	-0.547	-0.434	0.627	-0.194	-0.164	-0.256	-0.022	0.263	-0.216	-0.224
0.709	0.165	-0.544	-0.436	0.626	-0.19	-0.16	-0.251	-0.019	0.262	-0.214	-0.223
0.71	0.166	-0.544	-0.438	0.627	-0.19	-0.151	-0.249	-0.019	0.262	-0.215	-0.218
0.705	0.162	-0.543	-0.433	0.624	-0.191	-0.161	-0.25	-0.019	0.264	-0.214	-0.219
0.7	0.163	-0.537	-0.431	0.619	-0.188	-0.153	-0.247	-0.017	0.267	-0.211	-0.219
0.706	0.166	-0.539	-0.435	0.622	-0.187	-0.153	-0.246	-0.017	0.266	-0.212	-0.217
0.709	0.172	-0.536	-0.441	0.623	-0.182	-0.156	-0.25	-0.021	0.264	-0.212	-0.218
0.705	0.167	-0.538	-0.436	0.622	-0.185	-0.151	-0.241	-0.011	0.269	-0.212	-0.217
0.703	0.161	-0.542	-0.431	0.622	-0.191	-0.162	-0.243	-0.009	0.27	-0.212	-0.218
0.705	0.168	-0.537	-0.435	0.621	-0.184	-0.157	-0.243	-0.012	0.27	-0.211	-0.217
0.708	0.17	-0.537	-0.439	0.622	-0.183	-0.153	-0.236	-0.008	0.273	-0.21	-0.216
0.705	0.169	-0.536	-0.436	0.62	-0.183	-0.157	-0.241	-0.007	0.274	-0.209	-0.218
0.7	0.166	-0.534	-0.432	0.617	-0.184	-0.155	-0.242	-0.006	0.274	-0.209	-0.219
0.708	0.169	-0.538	-0.438	0.623	-0.185	-0.161	-0.238	-0.007	0.275	-0.208	-0.216
0.717	0.173	-0.543	-0.445	0.629	-0.185	-0.171	-0.237	-0.006	0.278	-0.207	-0.214
0.714	0.172	-0.542	-0.443	0.628	-0.185	-0.164	-0.237	-0.006	0.278	-0.205	-0.213
0.71	0.172	-0.537	-0.441	0.623	-0.182	-0.159	-0.235	-0.004	0.278	-0.204	-0.212
0.714	0.172	-0.542	-0.443	0.627	-0.185	-0.165	-0.235	-0.003	0.279	-0.203	-0.214
0.712	0.172	-0.539	-0.442	0.625	-0.183	-0.158	-0.233	-0.001	0.28	-0.202	-0.212
0.709	0.173	-0.535	-0.441	0.622	-0.181	-0.169	-0.233	0.003	0.28	-0.202	-0.211
0.711	0.172	-0.538	-0.441	0.624	-0.183	-0.172	-0.233	0.001	0.278	-0.203	-0.212
0.711	0.173	-0.536	-0.442	0.623	-0.181	-0.159	-0.232	-0.003	0.278	-0.202	-0.214
0.711	0.176	-0.534	-0.443	0.622	-0.179	-0.158	-0.23	0.001	0.28	-0.201	-0.212
0.708	0.176	-0.531	-0.442	0.619	-0.177	-0.162	-0.23	0.004	0.28	-0.203	-0.212
0.712	0.18	-0.53	-0.446	0.621	-0.175	-0.165	-0.23	0.005	0.281	-0.203	-0.213
0.718	0.186	-0.531	-0.452	0.624	-0.172	-0.166	-0.229	0.006	0.284	-0.202	-0.211
0.714	0.185	-0.529	-0.45	0.621	-0.172	-0.17	-0.23	0.006	0.284	-0.203	-0.213
0.704	0.183	-0.52	-0.444	0.612	-0.168	-0.165	-0.229	0.007	0.284	-0.203	-0.214
0.708	0.188	-0.52	-0.447	0.614	-0.166	-0.165	-0.227	0.009	0.285	-0.201	-0.213
0.71	0.187	-0.523	-0.448	0.616	-0.168	-0.17	-0.227	0.011	0.285	-0.2	-0.21
0.704	0.186	-0.518	-0.445	0.611	-0.166	-0.164	-0.225	0.011	0.286	-0.197	-0.209
0.706	0.188	-0.518	-0.447	0.612	-0.165	-0.162	-0.226	0.013	0.288	-0.198	-0.21
0.71	0.186	-0.523	-0.448	0.616	-0.169	-0.166	-0.227	0.012	0.287	-0.2	-0.208
0.709	0.185	-0.523	-0.447	0.616	-0.169	-0.168	-0.225	0.013	0.287	-0.197	-0.209
0.71	0.187	-0.523	-0.448	0.617	-0.168	-0.172	-0.228	0.013	0.288	-0.197	-0.209
0.712	0.191	-0.521	-0.451	0.616	-0.166	-0.17	-0.226	0.016	0.292	-0.193	-0.205
0.714	0.194	-0.519	-0.454	0.617	-0.163	-0.166	-0.222	0.021	0.294	-0.191	-0.203
0.72	0.195	-0.525	-0.457	0.623	-0.166	-0.169	-0.223	0.019	0.294	-0.192	-0.203
0.715	0.194	-0.521	-0.454	0.618	-0.164	-0.171	-0.223	0.019	0.297	-0.189	-0.203
0.707	0.19	-0.517	-0.448	0.612	-0.164	-0.171	-0.226	0.018	0.296	-0.189	-0.205
0.71	0.194	-0.516	-0.451	0.613	-0.162	-0.168	-0.218	0.025	0.299	-0.186	-0.203
0.719	0.198	-0.521	-0.458	0.62	-0.162	-0.169	-0.217	0.027	0.301	-0.184	-0.201
0.717	0.193	-0.524	-0.455	0.621	-0.166	-0.17	-0.221	0.025	0.297	-0.186	-0.201
0.714	0.191	-0.523	-0.452	0.619	-0.166	-0.173	-0.222	0.026	0.297	-0.187	-0.201
0.721	0.195	-0.525	-0.458	0.623	-0.166	-0.171	-0.225	0.025	0.298	-0.188	-0.201
0.711	0.193	-0.518	-0.451	0.614	-0.163	-0.169	-0.221	0.026	0.298	-0.187	-0.2
0.711	0.195	-0.515	-0.452	0.613	-0.161	-0.173	-0.218	0.025	0.299	-0.184	-0.198
0.723	0.202	-0.522	-0.462	0.623	-0.161	-0.178	-0.221	0.031	0.303	-0.182	-0.196
0.72	0.201	-0.519	-0.46	0.619	-0.159	-0.181	-0.218	0.033	0.304	-0.183	-0.198
0.717	0.203	-0.512	-0.46	0.614	-0.154	-0.166	-0.212	0.033	0.305	-0.181	-0.198
0.722	0.207	-0.514	-0.464	0.618	-0.153	-0.169	-0.213	0.034	0.304	-0.182	-0.197
0.724	0.206	-0.517	-0.465	0.62	-0.155	-0.176	-0.215	0.035	0.301	-0.183	-0.199
0.723	0.208	-0.514	-0.466	0.618	-0.152	-0.17	-0.215	0.037	0.304	-0.182	-0.198
0.726	0.214	-0.511	-0.47	0.618	-0.148	-0.173	-0.213	0.04	0.307	-0.179	-0.195
0.725	0.217	-0.508	-0.471	0.616	-0.145	-0.176	-0.213	0.043	0.31	-0.176	-0.194
0.723	0.214	-0.509	-0.469	0.616	-0.147	-0.179	-0.216	0.037	0.308	-0.18	-0.198
0.723	0.214	-0.508	-0.469	0.616	-0.147	-0.188	-0.219	0.036	0.307	-0.181	-0.198
0.722	0.215	-0.506	-0.469	0.614	-0.145	-0.181	-0.213	0.042	0.311	-0.177	-0.194
0.722	0.215	-0.506	-0.469	0.614	-0.145	-0.174	-0.208	0.043	0.312	-0.176	-0.193
0.724	0.219	-0.505	-0.471	0.614	-0.143	-0.182	-0.214	0.042	0.311	-0.176	-0.192
0.729	0.223	-0.506	-0.475	0.617	-0.141	-0.185	-0.215	0.041	0.314	-0.174	-0.19
0.728	0.224	-0.503	-0.476	0.616	-0.14	-0.186	-0.212	0.044	0.315	-0.172	-0.188
0.727	0.227	-0.5	-0.476	0.613	-0.137	-0.182	-0.211	0.048	0.316	-0.169	-0.186
0.724	0.226	-0.498	-0.474	0.611	-0.137	-0.182	-0.212	0.048	0.317	-0.17	-0.188
0.724	0.225	-0.498	-0.474	0.611	-0.137	-0.183	-0.214	0.046	0.32	-0.169	-0.188
0.732	0.23	-0.502	-0.48	0.617	-0.136	-0.186	-0.212	0.05	0.322	-0.164	-0.183
0.736	0.233	-0.503	-0.483	0.619	-0.136	-0.199	-0.214	0.051	0.322	-0.165	-0.183
0.728	0.229	-0.498	-0.478	0.613	-0.135	-0.192	-0.214	0.051	0.323	-0.165	-0.185
0.725	0.226	-0.499	-0.475	0.612	-0.137	-0.182	-0.215	0.05	0.324	-0.165	-0.184
0.73	0.229	-0.5	-0.479	0.615	-0.136	-0.188	-0.216	0.051	0.325	-0.163	-0.182
0.731	0.231	-0.499	-0.48	0.615	-0.135	-0.192	-0.214	0.053	0.327	-0.16	-0.181
0.73	0.232	-0.497	-0.48	0.614	-0.133	-0.192	-0.215	0.051	0.325	-0.163	-0.179
0.727	0.236	-0.49	-0.481	0.608	-0.127	-0.194	-0.214	0.053	0.33	-0.157	-0.176
0.725	0.238	-0.487	-0.481	0.606	-0.124	-0.192	-0.213	0.056	0.331	-0.156	-0.177
0.725	0.234	-0.49	-0.479	0.607	-0.128	-0.194	-0.219	0.051	0.327	-0.163	-0.182
0.731	0.238	-0.491	-0.484	0.611	-0.127	-0.208	-0.221	0.051	0.329	-0.162	-0.184
0.732	0.244	-0.487	-0.487	0.61	-0.121	-0.208	-0.218	0.053	0.333	-0.159	-0.182
0.725	0.243	-0.482	-0.483	0.603	-0.119	-0.196	-0.218	0.055	0.336	-0.156	-0.179
0.729	0.246	-0.482	-0.487	0.606	-0.118	-0.201	-0.216	0.059	0.34	-0.152	-0.177
0.734	0.248	-0.485	-0.491	0.609	-0.118	-0.204	-0.217	0.058	0.339	-0.152	-0.176
0.726	0.247	-0.478	-0.486	0.602	-0.116	-0.193	-0.217	0.059	0.341	-0.149	-0.174
0.725	0.249	-0.475	-0.487	0.6	-0.113	-0.202	-0.217	0.06	0.341	-0.148	-0.172
0.729	0.252	-0.477	-0.49	0.603	-0.113	-0.211	-0.217	0.059	0.339	-0.148	-0.172
0.735	0.257	-0.477	-0.495	0.606	-0.111	-0.204	-0.216	0.061	0.344	-0.145	-0.17
0.742	0.261	-0.481	-0.501	0.612	-0.111	-0.21	-0.218	0.064	0.346	-0.142	-0.165
0.745	0.264	-0.481	-0.503	0.613	-0.109	-0.21	-0.215	0.066	0.348	-0.14	-0.164
0.744	0.263	-0.481	-0.503	0.613	-0.109	-0.206	-0.218	0.065	0.349	-0.14	-0.164
0.739	0.263	-0.476	-0.5	0.607	-0.106	-0.208	-0.217	0.067	0.35	-0.137	-0.162
0.744	0.271	-0.473	-0.507	0.609	-0.102	-0.209	-0.214	0.07	0.353	-0.132	-0.158
0.748	0.27	-0.478	-0.508	0.613	-0.104	-0.215	-0.219	0.069	0.355	-0.13	-0.154
0.744	0.266	-0.478	-0.504	0.611	-0.106	-0.217	-0.22	0.069	0.355	-0.132	-0.157
0.742	0.267	-0.476	-0.504	0.609	-0.104	-0.22	-0.225	0.066	0.354	-0.133	-0.158
0.739	0.266	-0.473	-0.502	0.606	-0.103	-0.221	-0.227	0.066	0.356	-0.132	-0.155
0.739	0.273	-0.466	-0.505	0.602	-0.097	-0.214	-0.218	0.07	0.36	-0.126	-0.154
0.747	0.28	-0.467	-0.513	0.607	-0.093	-0.223	-0.218	0.07	0.362	-0.124	-0.152
0.753	0.284	-0.469	-0.519	0.611	-0.092	-0.223	-0.217	0.071	0.364	-0.12	-0.149
0.75	0.285	-0.466	-0.517	0.608	-0.09	-0.226	-0.22	0.073	0.366	-0.119	-0.149
0.751	0.283	-0.469	-0.517	0.61	-0.093	-0.232	-0.226	0.07	0.365	-0.119	-0.148
0.749	0.286	-0.463	-0.517	0.606	-0.088	-0.225	-0.225	0.07	0.366	-0.118	-0.147
0.749	0.289	-0.459	-0.518	0.604	-0.085	-0.229	-0.226	0.071	0.369	-0.117	-0.147
0.753	0.295	-0.458	-0.523	0.605	-0.081	-0.231	-0.224	0.074	0.371	-0.114	-0.144
0.752	0.295	-0.457	-0.523	0.604	-0.081	-0.234	-0.225	0.07	0.368	-0.115	-0.144
0.753	0.293	-0.46	-0.523	0.607	-0.084	-0.24	-0.231	0.067	0.367	-0.116	-0.146
0.752	0.297	-0.455	-0.524	0.604	-0.079	-0.241	-0.231	0.069	0.369	-0.116	-0.144
0.749	0.299	-0.45	-0.523	0.6	-0.076	-0.243	-0.233	0.069	0.371	-0.113	-0.143
0.754	0.305	-0.449	-0.53	0.602	-0.072	-0.248	-0.234	0.069	0.375	-0.108	-0.142
0.76	0.31	-0.45	-0.534	0.605	-0.07	-0.249	-0.235	0.069	0.375	-0.107	-0.139
0.761	0.314	-0.448	-0.537	0.605	-0.068	-0.251	-0.235	0.07	0.379	-0.104	-0.136
0.758	0.315	-0.443	-0.536	0.6	-0.064	-0.251	-0.234	0.07	0.381	-0.102	-0.136
0.759	0.317	-0.442	-0.538	0.601	-0.062	-0.249	-0.236	0.066	0.381	-0.102	-0.136
0.762	0.325	-0.438	-0.543	0.6	-0.057	-0.255	-0.238	0.065	0.384	-0.097	-0.132
0.761	0.328	-0.433	-0.544	0.597	-0.052	-0.259	-0.24	0.066	0.386	-0.093	-0.131
0.76	0.333	-0.428	-0.546	0.594	-0.048	-0.263	-0.245	0.061	0.389	-0.087	-0.125
0.757	0.329	-0.427	-0.542	0.592	-0.05	-0.262	-0.241	0.065	0.391	-0.085	-0.124
0.762	0.331	-0.431	-0.546	0.597	-0.051	-0.262	-0.239	0.07	0.395	-0.086	-0.124
0.763	0.338	-0.426	-0.55	0.595	-0.044	-0.271	-0.245	0.062	0.395	-0.082	-0.12
0.76	0.336	-0.424	-0.548	0.592	-0.044	-0.276	-0.247	0.06	0.393	-0.083	-0.122
0.761	0.337	-0.425	-0.549	0.593	-0.044	-0.275	-0.25	0.059	0.393	-0.082	-0.122
0.764	0.342	-0.423	-0.553	0.594	-0.041	-0.282	-0.254	0.057	0.393	-0.08	-0.121
0.765	0.344	-0.42	-0.555	0.593	-0.038	-0.285	-0.254	0.056	0.395	-0.077	-0.117
0.765	0.349	-0.416	-0.557	0.591	-0.034	-0.28	-0.254	0.054	0.398	-0.073	-0.114
0.771	0.355	-0.416	-0.563	0.594	-0.03	-0.281	-0.254	0.052	0.399	-0.07	-0.113
0.775	0.355	-0.419	-0.565	0.597	-0.032	-0.29	-0.263	0.049	0.397	-0.07	-0.114
0.77	0.358	-0.411	-0.564	0.591	-0.026	-0.294	-0.264	0.051	0.4	-0.067	-0.112
0.768	0.362	-0.407	-0.565	0.588	-0.022	-0.293	-0.261	0.052	0.403	-0.061	-0.106
0.775	0.366	-0.409	-0.57	0.592	-0.021	-0.296	-0.264	0.05	0.404	-0.06	-0.104
0.777	0.369	-0.408	-0.573	0.593	-0.019	-0.298	-0.265	0.046	0.406	-0.059	-0.103
0.774	0.369	-0.405	-0.571	0.589	-0.018	-0.298	-0.268	0.044	0.407	-0.057	-0.103
0.773	0.374	-0.4	-0.574	0.587	-0.013	-0.303	-0.269	0.044	0.41	-0.052	-0.1
0.782	0.383	-0.4	-0.582	0.591	-0.009	-0.315	-0.27	0.043	0.41	-0.05	-0.098
0.784	0.386	-0.398	-0.585	0.591	-0.006	-0.308	-0.272	0.042	0.414	-0.046	-0.096
0.78	0.384	-0.396	-0.582	0.588	-0.005	-0.301	-0.272	0.041	0.414	-0.043	-0.093
0.789	0.392	-0.398	-0.591	0.594	-0.004	-0.311	-0.274	0.035	0.412	-0.043	-0.091
0.789	0.397	-0.392	-0.593	0.591	0.003	-0.312	-0.275	0.035	0.415	-0.037	-0.086
0.778	0.396	-0.383	-0.587	0.58	0.006	-0.308	-0.272	0.04	0.418	-0.034	-0.086
0.785	0.401	-0.385	-0.593	0.585	0.008	-0.312	-0.275	0.037	0.419	-0.034	-0.086
0.788	0.403	-0.386	-0.596	0.587	0.009	-0.319	-0.281	0.035	0.419	-0.034	-0.085
0.786	0.406	-0.381	-0.596	0.584	0.013	-0.322	-0.28	0.035	0.423	-0.029	-0.081
0.793	0.411	-0.382	-0.602	0.587	0.015	-0.328	-0.278	0.034	0.425	-0.026	-0.078
0.791	0.41	-0.382	-0.601	0.586	0.015	-0.328	-0.281	0.032	0.424	-0.025	-0.08
0.787	0.411	-0.376	-0.599	0.582	0.018	-0.321	-0.283	0.031	0.427	-0.021	-0.076
0.789	0.416	-0.373	-0.603	0.581	0.021	-0.331	-0.28	0.033	0.429	-0.018	-0.072
0.79	0.421	-0.37	-0.606	0.58	0.025	-0.333	-0.281	0.032	0.429	-0.017	-0.069
0.79	0.423	-0.367	-0.607	0.579	0.028	-0.327	-0.284	0.028	0.429	-0.015	-0.07
0.793	0.425	-0.367	-0.609	0.58	0.029	-0.33	-0.284	0.028	0.43	-0.011	-0.069
0.792	0.426	-0.366	-0.609	0.579	0.029	-0.338	-0.288	0.026	0.431	-0.011	-0.067
0.79	0.422	-0.367	-0.607	0.579	0.028	-0.341	-0.295	0.021	0.43	-0.013	-0.07
0.795	0.43	-0.366	-0.613	0.581	0.032	-0.333	-0.286	0.028	0.436	-0.006	-0.065
0.797	0.435	-0.362	-0.616	0.58	0.036	-0.336	-0.281	0.029	0.438	-0.004	-0.062
0.797	0.434	-0.363	-0.615	0.58	0.035	-0.344	-0.288	0.025	0.436	-0.004	-0.064
0.795	0.439	-0.356	-0.617	0.576	0.041	-0.344	-0.285	0.028	0.439	0.001	-0.059
0.792	0.44	-0.353	-0.616	0.573	0.043	-0.337	-0.285	0.029	0.442	0.004	-0.057
0.794	0.438	-0.356	-0.616	0.576	0.041	-0.339	-0.282	0.032	0.445	0.006	-0.057
0.797	0.443	-0.354	-0.62	0.576	0.044	-0.341	-0.279	0.037	0.45	0.01	-0.054
0.797	0.445	-0.353	-0.621	0.575	0.045	-0.338	-0.28	0.034	0.451	0.01	-0.054
0.793	0.441	-0.352	-0.617	0.573	0.044	-0.341	-0.276	0.035	0.453	0.013	-0.052
0.799	0.444	-0.356	-0.622	0.578	0.044	-0.343	-0.277	0.038	0.457	0.015	-0.05
0.803	0.445	-0.359	-0.624	0.581	0.043	-0.343	-0.276	0.04	0.457	0.013	-0.051
0.798	0.445	-0.353	-0.621	0.576	0.046	-0.336	-0.271	0.043	0.461	0.016	-0.05
0.802	0.449	-0.354	-0.625	0.578	0.048	-0.339	-0.27	0.042	0.464	0.018	-0.045
0.799	0.448	-0.351	-0.624	0.575	0.049	-0.34	-0.269	0.043	0.466	0.017	-0.049
0.791	0.441	-0.351	-0.616	0.572	0.044	-0.331	-0.27	0.044	0.464	0.012	-0.056
0.796	0.444	-0.352	-0.62	0.574	0.045	-0.333	-0.266	0.047	0.464	0.014	-0.054
0.799	0.448	-0.352	-0.624	0.576	0.048	-0.333	-0.259	0.054	0.469	0.019	-0.049
0.795	0.441	-0.354	-0.618	0.575	0.043	-0.328	-0.258	0.053	0.469	0.018	-0.051
0.795	0.441	-0.354	-0.618	0.575	0.043	-0.333	-0.259	0.054	0.469	0.018	-0.052
0.799	0.442	-0.357	-0.621	0.578	0.043	-0.33	-0.251	0.061	0.474	0.021	-0.05
0.797	0.442	-0.356	-0.62	0.577	0.043	-0.323	-0.241	0.069	0.48	0.024	-0.047
0.797	0.443	-0.355	-0.62	0.576	0.043	-0.323	-0.24	0.073	0.483	0.027	-0.045
0.805	0.444	-0.361	-0.625	0.583	0.042	-0.319	-0.237	0.074	0.48	0.022	-0.048
0.805	0.442	-0.362	-0.624	0.584	0.04	-0.319	-0.232	0.077	0.484	0.021	-0.05
0.797	0.44	-0.358	-0.619	0.578	0.041	-0.314	-0.228	0.084	0.486	0.024	-0.051
0.795	0.437	-0.358	-0.616	0.577	0.039	-0.314	-0.227	0.085	0.483	0.019	-0.055
0.799	0.434	-0.365	-0.617	0.582	0.035	-0.312	-0.223	0.087	0.485	0.02	-0.055
0.802	0.435	-0.366	-0.619	0.584	0.035	-0.304	-0.217	0.092	0.488	0.021	-0.054
0.796	0.43	-0.365	-0.613	0.581	0.033	-0.301	-0.212	0.097	0.49	0.019	-0.057
0.796	0.427	-0.369	-0.612	0.583	0.029	-0.301	-0.209	0.1	0.49	0.018	-0.059
0.797	0.426	-0.371	-0.612	0.584	0.028	-0.297	-0.206	0.102	0.491	0.018	-0.058
0.794	0.422	-0.373	-0.608	0.584	0.025	-0.291	-0.201	0.106	0.492	0.018	-0.058
0.792	0.417	-0.375	-0.605	0.584	0.021	-0.29	-0.2	0.107	0.493	0.017	-0.059
0.795	0.414	-0.381	-0.605	0.588	0.017	-0.293	-0.2	0.11	0.495	0.016	-0.06
0.794	0.412	-0.382	-0.604	0.588	0.015	-0.287	-0.191	0.117	0.496	0.018	-0.06
0.79	0.406	-0.385	-0.598	0.587	0.011	-0.281	-0.186	0.119	0.496	0.015	-0.064
0.79	0.403	-0.388	-0.597	0.589	0.008	-0.284	-0.183	0.12	0.496	0.012	-0.066
0.787	0.399	-0.389	-0.593	0.588	0.005	-0.28	-0.184	0.121	0.494	0.009	-0.069
0.788	0.394	-0.395	-0.591	0.591	-0.001	-0.277	-0.183	0.124	0.493	0.007	-0.069
0.788	0.395	-0.394	-0.592	0.591	0.001	-0.263	-0.175	0.13	0.496	0.008	-0.068
0.779	0.387	-0.392	-0.583	0.585	-0.003	-0.254	-0.174	0.129	0.491	0.004	-0.071
0.78	0.384	-0.397	-0.582	0.588	-0.006	-0.256	-0.171	0.13	0.491	0.001	-0.073
0.785	0.385	-0.401	-0.585	0.593	-0.008	-0.256	-0.169	0.132	0.489	-0.003	-0.076
0.782	0.381	-0.401	-0.581	0.592	-0.011	-0.253	-0.167	0.131	0.486	-0.006	-0.077
0.782	0.379	-0.404	-0.581	0.593	-0.013	-0.247	-0.166	0.133	0.488	-0.005	-0.078
0.782	0.377	-0.406	-0.579	0.594	-0.015	-0.252	-0.167	0.132	0.485	-0.009	-0.079
0.784	0.374	-0.409	-0.579	0.597	-0.018	-0.245	-0.165	0.131	0.484	-0.015	-0.082
0.781	0.369	-0.411	-0.575	0.596	-0.021	-0.235	-0.164	0.132	0.48	-0.02	-0.087
0.773	0.363	-0.41	-0.568	0.591	-0.024	-0.239	-0.165	0.13	0.478	-0.024	-0.091
0.772	0.359	-0.413	-0.566	0.593	-0.027	-0.236	-0.164	0.13	0.478	-0.026	-0.094
0.77	0.357	-0.413	-0.564	0.592	-0.028	-0.226	-0.162	0.131	0.479	-0.029	-0.095
0.764	0.352	-0.412	-0.558	0.588	-0.03	-0.223	-0.162	0.132	0.476	-0.032	-0.1
0.767	0.346	-0.421	-0.556	0.594	-0.037	-0.223	-0.164	0.129	0.47	-0.037	-0.103
0.772	0.344	-0.428	-0.558	0.6	-0.042	-0.222	-0.163	0.13	0.47	-0.038	-0.104
0.764	0.34	-0.425	-0.552	0.595	-0.043	-0.218	-0.161	0.13	0.469	-0.041	-0.105
0.761	0.337	-0.424	-0.548	0.593	-0.043	-0.213	-0.163	0.126	0.464	-0.047	-0.108
0.759	0.331	-0.428	-0.544	0.593	-0.049	-0.211	-0.166	0.122	0.46	-0.051	-0.112
0.758	0.33	-0.428	-0.543	0.593	-0.05	-0.213	-0.165	0.121	0.457	-0.052	-0.113
0.759	0.332	-0.428	-0.545	0.594	-0.049	-0.206	-0.161	0.122	0.457	-0.053	-0.115
0.764	0.325	-0.44	-0.544	0.602	-0.057	-0.206	-0.165	0.116	0.453	-0.06	-0.118
0.764	0.32	-0.445	-0.542	0.604	-0.062	-0.207	-0.168	0.112	0.446	-0.067	-0.122
0.75	0.316	-0.434	-0.533	0.592	-0.059	-0.199	-0.167	0.107	0.443	-0.071	-0.126
0.742	0.308	-0.433	-0.525	0.588	-0.062	-0.197	-0.169	0.105	0.439	-0.074	-0.128
0.748	0.308	-0.441	-0.527	0.594	-0.067	-0.198	-0.173	0.101	0.432	-0.08	-0.133
0.752	0.308	-0.444	-0.53	0.598	-0.068	-0.195	-0.174	0.098	0.428	-0.083	-0.134
0.747	0.305	-0.443	-0.525	0.595	-0.069	-0.19	-0.172	0.099	0.425	-0.085	-0.136
0.745	0.3	-0.445	-0.522	0.595	-0.072	-0.193	-0.176	0.092	0.419	-0.091	-0.14
0.742	0.296	-0.445	-0.518	0.593	-0.074	-0.188	-0.178	0.088	0.416	-0.093	-0.142
0.74	0.294	-0.446	-0.516	0.593	-0.076	-0.181	-0.177	0.088	0.414	-0.097	-0.144
0.738	0.286	-0.452	-0.512	0.595	-0.083	-0.182	-0.182	0.084	0.409	-0.102	-0.148
0.741	0.285	-0.456	-0.512	0.598	-0.085	-0.178	-0.185	0.078	0.406	-0.104	-0.15
0.742	0.284	-0.458	-0.512	0.6	-0.087	-0.176	-0.186	0.075	0.403	-0.109	-0.152
0.739	0.279	-0.459	-0.508	0.599	-0.09	-0.174	-0.188	0.072	0.399	-0.113	-0.155
0.741	0.28	-0.461	-0.51	0.601	-0.09	-0.173	-0.189	0.071	0.396	-0.115	-0.157
0.737	0.277	-0.46	-0.506	0.598	-0.091	-0.174	-0.193	0.066	0.392	-0.117	-0.159
0.733	0.272	-0.461	-0.502	0.596	-0.095	-0.171	-0.198	0.059	0.387	-0.123	-0.161
0.728	0.268	-0.461	-0.498	0.594	-0.097	-0.171	-0.2	0.057	0.383	-0.127	-0.166
0.728	0.266	-0.463	-0.496	0.595	-0.099	-0.169	-0.202	0.054	0.379	-0.13	-0.17
0.731	0.267	-0.464	-0.498	0.597	-0.099	-0.172	-0.206	0.051	0.377	-0.133	-0.17
0.735	0.268	-0.467	-0.501	0.601	-0.1	-0.178	-0.208	0.044	0.376	-0.132	-0.172
0.734	0.266	-0.469	-0.499	0.601	-0.102	-0.172	-0.21	0.042	0.372	-0.135	-0.172
0.731	0.263	-0.469	-0.496	0.6	-0.103	-0.17	-0.214	0.037	0.367	-0.141	-0.174
0.729	0.26	-0.469	-0.494	0.599	-0.105	-0.164	-0.215	0.035	0.364	-0.142	-0.177
0.726	0.258	-0.468	-0.491	0.596	-0.104	-0.164	-0.22	0.033	0.359	-0.146	-0.181
0.727	0.255	-0.471	-0.491	0.599	-0.108	-0.167	-0.221	0.028	0.354	-0.15	-0.183
0.725	0.252	-0.473	-0.487	0.599	-0.111	-0.167	-0.223	0.025	0.353	-0.151	-0.183
0.725	0.25	-0.475	-0.487	0.6	-0.113	-0.169	-0.229	0.021	0.35	-0.153	-0.185
0.725	0.248	-0.477	-0.486	0.601	-0.115	-0.17	-0.232	0.016	0.346	-0.157	-0.188
0.722	0.247	-0.475	-0.484	0.599	-0.114	-0.168	-0.231	0.015	0.346	-0.159	-0.187
0.725	0.247	-0.477	-0.486	0.601	-0.115	-0.164	-0.233	0.011	0.344	-0.161	-0.187
0.727	0.248	-0.479	-0.487	0.603	-0.116	-0.167	-0.237	0.009	0.342	-0.162	-0.19
0.721	0.245	-0.475	-0.483	0.598	-0.115	-0.169	-0.239	0.006	0.338	-0.165	-0.193
0.717	0.24	-0.476	-0.478	0.596	-0.118	-0.166	-0.246	-0.002	0.333	-0.169	-0.197
0.717	0.24	-0.477	-0.478	0.597	-0.119	-0.166	-0.246	-0.001	0.332	-0.169	-0.198
0.718	0.237	-0.48	-0.477	0.599	-0.121	-0.171	-0.252	-0.004	0.328	-0.173	-0.197
0.722	0.238	-0.483	-0.48	0.603	-0.122	-0.166	-0.251	-0.004	0.329	-0.173	-0.196
0.72	0.242	-0.477	-0.48	0.599	-0.118	-0.166	-0.245	-0.002	0.332	-0.173	-0.195
0.721	0.239	-0.481	-0.479	0.601	-0.121	-0.164	-0.251	-0.007	0.327	-0.176	-0.197
0.721	0.235	-0.486	-0.477	0.604	-0.126	-0.161	-0.252	-0.008	0.326	-0.175	-0.197
0.717	0.233	-0.484	-0.474	0.601	-0.126	-0.164	-0.254	-0.01	0.326	-0.177	-0.198
0.715	0.23	-0.484	-0.472	0.6	-0.128	-0.163	-0.255	-0.009	0.324	-0.177	-0.198
0.713	0.228	-0.485	-0.47	0.599	-0.129	-0.167	-0.261	-0.013	0.323	-0.178	-0.2
0.716	0.228	-0.488	-0.471	0.602	-0.13	-0.169	-0.261	-0.014	0.32	-0.18	-0.201
0.715	0.228	-0.487	-0.47	0.601	-0.13	-0.157	-0.254	-0.013	0.32	-0.179	-0.2
0.716	0.226	-0.49	-0.47	0.603	-0.133	-0.157	-0.258	-0.018	0.317	-0.181	-0.202
0.721	0.224	-0.496	-0.472	0.608	-0.136	-0.165	-0.259	-0.018	0.316	-0.182	-0.2
0.717	0.225	-0.492	-0.47	0.604	-0.134	-0.164	-0.26	-0.018	0.317	-0.183	-0.2
0.713	0.223	-0.489	-0.468	0.601	-0.133	-0.163	-0.261	-0.019	0.315	-0.183	-0.202
0.713	0.222	-0.491	-0.467	0.602	-0.136	-0.163	-0.262	-0.018	0.316	-0.182	-0.2
0.709	0.218	-0.49	-0.464	0.6	-0.136	-0.162	-0.266	-0.018	0.317	-0.182	-0.202
0.712	0.217	-0.494	-0.464	0.603	-0.138	-0.164	-0.266	-0.02	0.314	-0.186	-0.203
0.711	0.217	-0.492	-0.464	0.602	-0.138	-0.168	-0.263	-0.021	0.312	-0.189	-0.206
0.707	0.216	-0.49	-0.461	0.599	-0.137	-0.165	-0.266	-0.026	0.31	-0.19	-0.209
0.712	0.217	-0.494	-0.464	0.603	-0.139	-0.164	-0.268	-0.027	0.309	-0.189	-0.208
0.713	0.217	-0.495	-0.465	0.604	-0.139	-0.169	-0.266	-0.024	0.311	-0.186	-0.207
0.713	0.216	-0.495	-0.464	0.604	-0.14	-0.163	-0.267	-0.025	0.31	-0.186	-0.205
0.71	0.215	-0.494	-0.462	0.602	-0.14	-0.156	-0.267	-0.025	0.311	-0.186	-0.205
0.709	0.212	-0.496	-0.461	0.603	-0.142	-0.161	-0.267	-0.024	0.308	-0.189	-0.206
0.711	0.21	-0.5	-0.461	0.606	-0.145	-0.166	-0.27	-0.025	0.306	-0.191	-0.206
0.71	0.21	-0.499	-0.46	0.605	-0.144	-0.168	-0.27	-0.027	0.306	-0.191	-0.206
0.708	0.208	-0.499	-0.458	0.604	-0.145	-0.16	-0.268	-0.026	0.307	-0.192	-0.205
0.707	0.209	-0.497	-0.458	0.602	-0.144	-0.155	-0.267	-0.026	0.308	-0.192	-0.205
0.707	0.208	-0.498	-0.457	0.602	-0.145	-0.166	-0.268	-0.026	0.306	-0.194	-0.205
0.704	0.205	-0.498	-0.455	0.601	-0.146	-0.168	-0.269	-0.027	0.306	-0.196	-0.207
0.702	0.206	-0.496	-0.454	0.599	-0.145	-0.16	-0.268	-0.027	0.306	-0.196	-0.207
0.704	0.205	-0.498	-0.454	0.601	-0.147	-0.156	-0.268	-0.026	0.306	-0.196	-0.206
0.704	0.205	-0.498	-0.455	0.601	-0.146	-0.16	-0.268	-0.028	0.305	-0.195	-0.208
0.706	0.201	-0.504	-0.453	0.605	-0.152	-0.17	-0.269	-0.029	0.301	-0.199	-0.211
0.705	0.203	-0.502	-0.454	0.603	-0.149	-0.162	-0.268	-0.028	0.302	-0.198	-0.211
0.705	0.205	-0.499	-0.455	0.602	-0.147	-0.157	-0.265	-0.026	0.302	-0.196	-0.211
0.708	0.205	-0.503	-0.457	0.606	-0.149	-0.16	-0.264	-0.026	0.3	-0.196	-0.211
0.706	0.205	-0.499	-0.455	0.603	-0.147	-0.158	-0.264	-0.026	0.299	-0.196	-0.211
0.704	0.203	-0.5	-0.454	0.602	-0.148	-0.16	-0.268	-0.028	0.296	-0.198	-0.212
0.7	0.203	-0.497	-0.452	0.599	-0.147	-0.155	-0.263	-0.026	0.298	-0.199	-0.213
0.701	0.204	-0.497	-0.452	0.599	-0.146	-0.159	-0.263	-0.026	0.297	-0.202	-0.216
0.709	0.212	-0.496	-0.46	0.602	-0.141	-0.166	-0.267	-0.03	0.296	-0.201	-0.214
0.709	0.212	-0.496	-0.461	0.603	-0.142	-0.153	-0.258	-0.023	0.296	-0.201	-0.216
0.706	0.205	-0.499	-0.456	0.603	-0.147	-0.146	-0.256	-0.019	0.296	-0.203	-0.218
0.703	0.208	-0.495	-0.456	0.599	-0.143	-0.152	-0.26	-0.021	0.3	-0.197	-0.212
0.706	0.21	-0.495	-0.458	0.601	-0.142	-0.154	-0.26	-0.021	0.296	-0.201	-0.214
0.707	0.209	-0.497	-0.458	0.602	-0.144	-0.153	-0.26	-0.024	0.292	-0.205	-0.216
0.709	0.209	-0.499	-0.459	0.604	-0.145	-0.154	-0.256	-0.022	0.295	-0.202	-0.213
0.71	0.211	-0.498	-0.46	0.604	-0.143	-0.15	-0.256	-0.021	0.295	-0.2	-0.212
0.707	0.21	-0.497	-0.458	0.602	-0.143	-0.149	-0.257	-0.021	0.295	-0.201	-0.211
0.706	0.21	-0.496	-0.458	0.601	-0.143	-0.152	-0.257	-0.022	0.295	-0.2	-0.211
0.706	0.212	-0.493	-0.459	0.599	-0.14	-0.154	-0.255	-0.021	0.297	-0.198	-0.211
0.707	0.213	-0.493	-0.461	0.6	-0.14	-0.151	-0.256	-0.021	0.298	-0.199	-0.212
0.708	0.213	-0.494	-0.461	0.601	-0.141	-0.153	-0.256	-0.021	0.296	-0.201	-0.212
0.709	0.213	-0.495	-0.461	0.601	-0.141	-0.158	-0.256	-0.02	0.295	-0.201	-0.212
0.709	0.213	-0.495	-0.461	0.602	-0.141	-0.153	-0.257	-0.021	0.294	-0.202	-0.213
0.708	0.213	-0.494	-0.461	0.601	-0.14	-0.153	-0.255	-0.021	0.295	-0.204	-0.212
0.705	0.212	-0.492	-0.459	0.598	-0.14	-0.152	-0.254	-0.02	0.296	-0.202	-0.211
0.708	0.213	-0.494	-0.461	0.601	-0.14	-0.152	-0.254	-0.02	0.294	-0.201	-0.211
0.71	0.213	-0.496	-0.462	0.603	-0.141	-0.157	-0.255	-0.021	0.292	-0.202	-0.212
0.705	0.208	-0.496	-0.457	0.6	-0.144	-0.154	-0.255	-0.021	0.291	-0.202	-0.212
0.702	0.206	-0.495	-0.454	0.598	-0.144	-0.155	-0.256	-0.018	0.292	-0.203	-0.211
0.701	0.207	-0.494	-0.454	0.597	-0.143	-0.155	-0.257	-0.019	0.293	-0.204	-0.211
0.707	0.209	-0.498	-0.458	0.602	-0.144	-0.155	-0.254	-0.022	0.291	-0.204	-0.21
0.709	0.212	-0.496	-0.461	0.602	-0.141	-0.155	-0.252	-0.021	0.292	-0.203	-0.21
0.707	0.211	-0.495	-0.459	0.601	-0.142	-0.152	-0.253	-0.021	0.294	-0.203	-0.21
0.705	0.21	-0.495	-0.457	0.6	-0.143	-0.15	-0.252	-0.021	0.294	-0.201	-0.209
0.707	0.21	-0.496	-0.459	0.602	-0.143	-0.156	-0.256	-0.023	0.292	-0.204	-0.212
0.708	0.211	-0.496	-0.46	0.602	-0.142	-0.159	-0.256	-0.024	0.291	-0.206	-0.213
0.704	0.212	-0.491	-0.458	0.598	-0.14	-0.149	-0.25	-0.021	0.293	-0.203	-0.21
0.706	0.213	-0.493	-0.46	0.599	-0.14	-0.152	-0.252	-0.021	0.292	-0.204	-0.211
0.707	0.214	-0.492	-0.461	0.6	-0.139	-0.153	-0.253	-0.02	0.291	-0.204	-0.211
0.712	0.217	-0.493	-0.464	0.602	-0.138	-0.153	-0.252	-0.021	0.292	-0.204	-0.21
0.713	0.218	-0.493	-0.466	0.603	-0.138	-0.156	-0.252	-0.024	0.291	-0.204	-0.211
0.709	0.215	-0.493	-0.462	0.601	-0.139	-0.158	-0.254	-0.025	0.29	-0.204	-0.213
0.709	0.213	-0.494	-0.461	0.601	-0.141	-0.161	-0.256	-0.024	0.29	-0.204	-0.212
0.706	0.213	-0.492	-0.46	0.599	-0.139	-0.154	-0.255	-0.024	0.289	-0.204	-0.212
0.706	0.214	-0.491	-0.46	0.598	-0.138	-0.154	-0.254	-0.024	0.29	-0.204	-0.212
0.709	0.22	-0.489	-0.464	0.599	-0.135	-0.158	-0.255	-0.025	0.289	-0.206	-0.212
0.708	0.221	-0.487	-0.464	0.597	-0.133	-0.157	-0.255	-0.026	0.289	-0.206	-0.214
0.705	0.22	-0.485	-0.463	0.595	-0.133	-0.159	-0.256	-0.026	0.29	-0.206	-0.214
0.706	0.22	-0.486	-0.463	0.596	-0.133	-0.158	-0.257	-0.026	0.287	-0.206	-0.214
0.705	0.217	-0.487	-0.461	0.596	-0.135	-0.158	-0.256	-0.025	0.287	-0.206	-0.214
0.706	0.219	-0.486	-0.462	0.596	-0.134	-0.161	-0.255	-0.026	0.287	-0.207	-0.214
0.706	0.221	-0.484	-0.464	0.595	-0.132	-0.159	-0.254	-0.026	0.287	-0.203	-0.212
0.706	0.221	-0.485	-0.463	0.595	-0.133	-0.157	-0.254	-0.026	0.29	-0.203	-0.21
0.706	0.22	-0.486	-0.463	0.596	-0.134	-0.155	-0.254	-0.026	0.288	-0.204	-0.211
0.703	0.218	-0.485	-0.461	0.594	-0.134	-0.16	-0.254	-0.029	0.286	-0.206	-0.21
0.703	0.218	-0.483	-0.46	0.593	-0.133	-0.165	-0.255	-0.03	0.287	-0.205	-0.209
0.702	0.219	-0.483	-0.461	0.593	-0.132	-0.16	-0.256	-0.03	0.287	-0.204	-0.21
0.701	0.218	-0.482	-0.46	0.592	-0.132	-0.159	-0.257	-0.032	0.287	-0.204	-0.21
0.703	0.22	-0.482	-0.461	0.592	-0.131	-0.158	-0.255	-0.03	0.288	-0.205	-0.209
0.707	0.221	-0.486	-0.464	0.597	-0.133	-0.164	-0.262	-0.031	0.286	-0.204	-0.208
0.71	0.223	-0.487	-0.466	0.599	-0.132	-0.165	-0.263	-0.032	0.285	-0.204	-0.208
0.705	0.224	-0.481	-0.464	0.593	-0.129	-0.16	-0.257	-0.033	0.286	-0.203	-0.206
0.703	0.223	-0.48	-0.463	0.591	-0.129	-0.166	-0.26	-0.031	0.289	-0.203	-0.205
0.708	0.225	-0.483	-0.466	0.595	-0.129	-0.168	-0.263	-0.034	0.288	-0.203	-0.204
0.709	0.227	-0.483	-0.468	0.596	-0.129	-0.165	-0.264	-0.035	0.286	-0.202	-0.204
0.71	0.226	-0.484	-0.468	0.597	-0.129	-0.161	-0.262	-0.032	0.287	-0.202	-0.205
0.709	0.227	-0.481	-0.468	0.595	-0.128	-0.16	-0.261	-0.034	0.286	-0.203	-0.207
0.706	0.226	-0.48	-0.466	0.593	-0.127	-0.162	-0.26	-0.035	0.285	-0.204	-0.206
0.71	0.227	-0.482	-0.468	0.596	-0.128	-0.163	-0.259	-0.035	0.286	-0.203	-0.205
0.713	0.231	-0.482	-0.472	0.597	-0.126	-0.164	-0.26	-0.035	0.289	-0.202	-0.204
0.718	0.233	-0.485	-0.475	0.601	-0.126	-0.168	-0.263	-0.036	0.288	-0.202	-0.203
0.718	0.235	-0.482	-0.476	0.6	-0.123	-0.168	-0.262	-0.036	0.285	-0.2	-0.204
0.716	0.237	-0.478	-0.476	0.597	-0.12	-0.162	-0.263	-0.037	0.284	-0.202	-0.203
0.713	0.235	-0.478	-0.473	0.595	-0.121	-0.165	-0.267	-0.039	0.284	-0.203	-0.203
0.715	0.238	-0.476	-0.476	0.596	-0.119	-0.167	-0.263	-0.037	0.286	-0.2	-0.202
0.716	0.24	-0.475	-0.477	0.596	-0.118	-0.165	-0.261	-0.037	0.286	-0.2	-0.202
0.713	0.236	-0.476	-0.474	0.594	-0.119	-0.169	-0.265	-0.04	0.286	-0.2	-0.202
0.716	0.237	-0.478	-0.476	0.597	-0.12	-0.172	-0.266	-0.04	0.285	-0.199	-0.201
0.713	0.237	-0.476	-0.475	0.594	-0.119	-0.172	-0.269	-0.041	0.284	-0.203	-0.203
0.712	0.238	-0.474	-0.474	0.593	-0.118	-0.17	-0.268	-0.042	0.283	-0.203	-0.203
0.712	0.239	-0.472	-0.475	0.592	-0.117	-0.168	-0.268	-0.042	0.285	-0.2	-0.203
0.714	0.241	-0.472	-0.477	0.593	-0.116	-0.172	-0.27	-0.043	0.285	-0.201	-0.203
0.72	0.245	-0.474	-0.482	0.597	-0.115	-0.173	-0.269	-0.042	0.286	-0.198	-0.2
0.718	0.244	-0.473	-0.481	0.595	-0.114	-0.174	-0.271	-0.044	0.286	-0.2	-0.201
0.715	0.244	-0.47	-0.48	0.593	-0.113	-0.175	-0.271	-0.044	0.287	-0.2	-0.2
0.719	0.244	-0.474	-0.481	0.596	-0.115	-0.175	-0.271	-0.045	0.287	-0.197	-0.201
0.721	0.245	-0.475	-0.482	0.598	-0.115	-0.177	-0.275	-0.048	0.283	-0.201	-0.203
0.717	0.244	-0.472	-0.48	0.595	-0.115	-0.182	-0.277	-0.049	0.283	-0.2	-0.203
0.716	0.243	-0.472	-0.479	0.594	-0.114	-0.182	-0.278	-0.051	0.282	-0.2	-0.203
0.718	0.248	-0.469	-0.483	0.593	-0.111	-0.176	-0.275	-0.048	0.283	-0.2	-0.203
0.716	0.247	-0.468	-0.481	0.592	-0.111	-0.174	-0.277	-0.049	0.283	-0.2	-0.202
0.72	0.248	-0.471	-0.484	0.596	-0.112	-0.174	-0.278	-0.052	0.282	-0.199	-0.203
0.723	0.249	-0.474	-0.485	0.599	-0.113	-0.178	-0.28	-0.052	0.281	-0.197	-0.202
0.723	0.249	-0.473	-0.485	0.598	-0.112	-0.178	-0.281	-0.053	0.281	-0.198	-0.201
0.723	0.249	-0.472	-0.486	0.597	-0.112	-0.178	-0.281	-0.055	0.281	-0.198	-0.201
0.718	0.246	-0.471	-0.481	0.594	-0.113	-0.177	-0.282	-0.056	0.282	-0.197	-0.201
0.719	0.249	-0.469	-0.484	0.594	-0.11	-0.181	-0.284	-0.056	0.282	-0.195	-0.201
0.723	0.253	-0.47	-0.488	0.597	-0.109	-0.182	-0.285	-0.056	0.281	-0.196	-0.201
0.721	0.251	-0.47	-0.485	0.595	-0.11	-0.178	-0.284	-0.057	0.28	-0.198	-0.203
0.719	0.248	-0.47	-0.483	0.595	-0.111	-0.189	-0.29	-0.059	0.28	-0.199	-0.202
0.718	0.248	-0.469	-0.483	0.593	-0.111	-0.182	-0.287	-0.059	0.281	-0.199	-0.201
0.716	0.248	-0.468	-0.481	0.591	-0.11	-0.175	-0.287	-0.059	0.279	-0.2	-0.203
0.717	0.248	-0.468	-0.482	0.592	-0.11	-0.181	-0.294	-0.063	0.278	-0.202	-0.204
0.718	0.252	-0.466	-0.484	0.592	-0.107	-0.181	-0.291	-0.061	0.279	-0.203	-0.202
0.722	0.253	-0.469	-0.487	0.595	-0.107	-0.182	-0.29	-0.06	0.278	-0.203	-0.202
0.723	0.251	-0.472	-0.486	0.597	-0.111	-0.184	-0.297	-0.067	0.274	-0.204	-0.204
0.717	0.249	-0.467	-0.483	0.592	-0.108	-0.188	-0.301	-0.067	0.275	-0.204	-0.203
0.717	0.251	-0.466	-0.483	0.591	-0.107	-0.187	-0.294	-0.062	0.278	-0.201	-0.202
0.719	0.252	-0.467	-0.485	0.593	-0.107	-0.185	-0.293	-0.067	0.276	-0.202	-0.204
0.717	0.25	-0.467	-0.483	0.591	-0.108	-0.19	-0.298	-0.069	0.276	-0.203	-0.205
0.716	0.248	-0.468	-0.482	0.592	-0.11	-0.188	-0.299	-0.067	0.276	-0.202	-0.203
0.719	0.252	-0.467	-0.485	0.593	-0.107	-0.185	-0.3	-0.07	0.276	-0.202	-0.204
0.719	0.251	-0.468	-0.484	0.593	-0.108	-0.189	-0.3	-0.072	0.273	-0.203	-0.206
0.716	0.248	-0.468	-0.481	0.591	-0.11	-0.185	-0.301	-0.073	0.274	-0.203	-0.204
0.719	0.248	-0.47	-0.483	0.595	-0.111	-0.186	-0.299	-0.075	0.275	-0.203	-0.204
0.719	0.248	-0.469	-0.483	0.594	-0.111	-0.191	-0.299	-0.074	0.274	-0.202	-0.204
0.716	0.246	-0.469	-0.481	0.592	-0.111	-0.193	-0.304	-0.075	0.274	-0.202	-0.204
0.717	0.246	-0.47	-0.481	0.593	-0.112	-0.188	-0.305	-0.078	0.271	-0.203	-0.206
0.717	0.246	-0.47	-0.481	0.594	-0.113	-0.182	-0.302	-0.077	0.272	-0.203	-0.204
0.717	0.244	-0.471	-0.48	0.594	-0.114	-0.186	-0.303	-0.079	0.271	-0.204	-0.205
0.715	0.243	-0.471	-0.479	0.593	-0.114	-0.19	-0.305	-0.081	0.269	-0.205	-0.206
0.717	0.242	-0.474	-0.479	0.595	-0.116	-0.196	-0.309	-0.083	0.269	-0.206	-0.206
0.722	0.246	-0.476	-0.484	0.599	-0.115	-0.192	-0.311	-0.084	0.266	-0.207	-0.207
0.723	0.248	-0.475	-0.485	0.599	-0.114	-0.19	-0.311	-0.083	0.266	-0.207	-0.205
0.724	0.249	-0.474	-0.486	0.599	-0.113	-0.19	-0.309	-0.084	0.265	-0.206	-0.204
0.719	0.247	-0.471	-0.482	0.595	-0.112	-0.184	-0.308	-0.085	0.265	-0.206	-0.204
0.718	0.247	-0.47	-0.482	0.594	-0.112	-0.189	-0.309	-0.087	0.264	-0.206	-0.204
0.722	0.249	-0.472	-0.485	0.597	-0.112	-0.188	-0.311	-0.089	0.263	-0.207	-0.205
0.72	0.247	-0.471	-0.483	0.595	-0.112	-0.19	-0.314	-0.091	0.261	-0.208	-0.206
0.719	0.248	-0.47	-0.483	0.595	-0.111	-0.191	-0.315	-0.091	0.261	-0.209	-0.209
0.718	0.248	-0.469	-0.483	0.593	-0.111	-0.186	-0.315	-0.09	0.263	-0.209	-0.207
0.716	0.248	-0.468	-0.481	0.592	-0.11	-0.189	-0.317	-0.092	0.261	-0.208	-0.206
0.718	0.248	-0.469	-0.482	0.593	-0.111	-0.191	-0.318	-0.094	0.259	-0.209	-0.208
0.721	0.251	-0.47	-0.485	0.596	-0.11	-0.191	-0.318	-0.094	0.259	-0.207	-0.206
0.721	0.249	-0.47	-0.485	0.596	-0.111	-0.19	-0.319	-0.095	0.258	-0.207	-0.206
0.719	0.247	-0.472	-0.483	0.595	-0.113	-0.19	-0.318	-0.096	0.26	-0.209	-0.205
0.719	0.246	-0.472	-0.482	0.596	-0.114	-0.19	-0.318	-0.095	0.258	-0.208	-0.205
0.721	0.247	-0.473	-0.484	0.597	-0.113	-0.191	-0.322	-0.099	0.255	-0.209	-0.208
0.721	0.247	-0.473	-0.483	0.597	-0.114	-0.191	-0.321	-0.099	0.256	-0.21	-0.208
0.714	0.244	-0.469	-0.479	0.592	-0.113	-0.191	-0.323	-0.099	0.255	-0.211	-0.208
0.713	0.244	-0.468	-0.478	0.59	-0.112	-0.194	-0.326	-0.102	0.255	-0.213	-0.209
0.716	0.244	-0.471	-0.48	0.594	-0.114	-0.195	-0.329	-0.104	0.253	-0.213	-0.209
0.716	0.244	-0.471	-0.48	0.594	-0.114	-0.195	-0.328	-0.103	0.252	-0.214	-0.21
0.721	0.248	-0.472	-0.484	0.596	-0.113	-0.193	-0.327	-0.102	0.253	-0.212	-0.208
0.724	0.251	-0.473	-0.487	0.598	-0.111	-0.193	-0.326	-0.102	0.253	-0.212	-0.206
0.715	0.245	-0.469	-0.48	0.592	-0.112	-0.193	-0.326	-0.102	0.251	-0.214	-0.209
0.71	0.242	-0.467	-0.476	0.589	-0.113	-0.191	-0.328	-0.105	0.249	-0.215	-0.211
0.711	0.243	-0.467	-0.477	0.588	-0.111	-0.193	-0.328	-0.105	0.249	-0.215	-0.211
0.712	0.243	-0.468	-0.477	0.59	-0.112	-0.195	-0.331	-0.106	0.248	-0.219	-0.215
0.716	0.248	-0.468	-0.481	0.592	-0.11	-0.198	-0.331	-0.107	0.248	-0.219	-0.214
0.714	0.246	-0.468	-0.48	0.591	-0.111	-0.197	-0.329	-0.106	0.248	-0.217	-0.211
0.71	0.24	-0.469	-0.475	0.589	-0.114	-0.191	-0.33	-0.11	0.247	-0.219	-0.214
0.709	0.238	-0.47	-0.473	0.589	-0.116	-0.194	-0.331	-0.113	0.244	-0.22	-0.216
0.711	0.24	-0.47	-0.474	0.59	-0.116	-0.193	-0.332	-0.112	0.246	-0.217	-0.213
0.713	0.243	-0.469	-0.477	0.591	-0.113	-0.195	-0.33	-0.112	0.248	-0.216	-0.212
0.709	0.24	-0.469	-0.474	0.589	-0.115	-0.197	-0.33	-0.115	0.244	-0.218	-0.215
0.71	0.241	-0.469	-0.475	0.589	-0.114	-0.196	-0.331	-0.115	0.243	-0.219	-0.214
0.711	0.24	-0.471	-0.475	0.591	-0.116	-0.201	-0.334	-0.117	0.239	-0.221	-0.215
0.709	0.237	-0.47	-0.472	0.589	-0.117	-0.194	-0.332	-0.116	0.24	-0.22	-0.215
0.709	0.241	-0.467	-0.474	0.588	-0.113	-0.187	-0.328	-0.114	0.242	-0.219	-0.214
0.711	0.243	-0.468	-0.476	0.589	-0.112	-0.192	-0.33	-0.116	0.24	-0.22	-0.213
0.712	0.244	-0.467	-0.477	0.589	-0.112	-0.194	-0.33	-0.117	0.241	-0.219	-0.214
0.709	0.24	-0.468	-0.474	0.588	-0.114	-0.196	-0.333	-0.118	0.239	-0.22	-0.215
0.711	0.243	-0.468	-0.476	0.589	-0.112	-0.196	-0.336	-0.119	0.239	-0.222	-0.215
0.711	0.244	-0.467	-0.477	0.588	-0.111	-0.195	-0.334	-0.119	0.238	-0.222	-0.216
0.708	0.241	-0.468	-0.474	0.588	-0.113	-0.196	-0.333	-0.118	0.237	-0.221	-0.215
0.711	0.241	-0.469	-0.475	0.59	-0.114	-0.196	-0.334	-0.121	0.236	-0.221	-0.216
0.707	0.238	-0.469	-0.472	0.588	-0.116	-0.197	-0.336	-0.122	0.235	-0.223	-0.217
0.709	0.24	-0.469	-0.474	0.589	-0.115	-0.196	-0.336	-0.12	0.238	-0.223	-0.217
0.713	0.245	-0.468	-0.479	0.59	-0.111	-0.194	-0.334	-0.121	0.238	-0.223	-0.217
0.712	0.242	-0.469	-0.477	0.591	-0.114	-0.199	-0.336	-0.123	0.236	-0.224	-0.215
0.71	0.241	-0.468	-0.475	0.589	-0.113	-0.195	-0.336	-0.122	0.236	-0.224	-0.216
0.705	0.241	-0.464	-0.473	0.584	-0.111	-0.192	-0.337	-0.123	0.235	-0.224	-0.217
0.705	0.241	-0.464	-0.472	0.584	-0.112	-0.194	-0.34	-0.124	0.234	-0.224	-0.217
0.707	0.24	-0.466	-0.473	0.587	-0.113	-0.195	-0.341	-0.124	0.234	-0.223	-0.217
0.707	0.238	-0.468	-0.472	0.587	-0.115	-0.197	-0.338	-0.126	0.235	-0.223	-0.217
0.706	0.24	-0.466	-0.473	0.586	-0.113	-0.197	-0.338	-0.126	0.234	-0.224	-0.218
0.709	0.241	-0.468	-0.475	0.588	-0.113	-0.198	-0.34	-0.127	0.234	-0.224	-0.218
0.71	0.239	-0.469	-0.474	0.59	-0.115	-0.202	-0.343	-0.129	0.233	-0.227	-0.217
0.707	0.238	-0.469	-0.472	0.588	-0.116	-0.201	-0.344	-0.13	0.231	-0.229	-0.22
0.706	0.237	-0.468	-0.471	0.587	-0.115	-0.198	-0.34	-0.127	0.233	-0.228	-0.219
0.705	0.238	-0.467	-0.471	0.586	-0.114	-0.201	-0.34	-0.128	0.234	-0.228	-0.217
0.706	0.24	-0.465	-0.472	0.585	-0.113	-0.196	-0.339	-0.127	0.234	-0.229	-0.216
0.708	0.241	-0.466	-0.474	0.587	-0.113	-0.197	-0.339	-0.129	0.233	-0.228	-0.215
0.709	0.241	-0.468	-0.474	0.588	-0.114	-0.198	-0.342	-0.13	0.231	-0.23	-0.215
0.71	0.242	-0.468	-0.475	0.588	-0.113	-0.198	-0.341	-0.13	0.232	-0.231	-0.214
0.708	0.241	-0.467	-0.474	0.587	-0.113	-0.206	-0.344	-0.133	0.23	-0.231	-0.215
0.706	0.241	-0.465	-0.473	0.585	-0.112	-0.197	-0.344	-0.131	0.229	-0.231	-0.217
0.709	0.242	-0.466	-0.475	0.587	-0.112	-0.195	-0.342	-0.133	0.23	-0.229	-0.215
0.707	0.241	-0.465	-0.473	0.586	-0.112	-0.204	-0.344	-0.133	0.231	-0.23	-0.215
0.706	0.243	-0.462	-0.474	0.584	-0.11	-0.198	-0.343	-0.133	0.23	-0.231	-0.218
0.711	0.245	-0.466	-0.477	0.588	-0.111	-0.2	-0.344	-0.134	0.228	-0.231	-0.216
0.712	0.244	-0.467	-0.477	0.589	-0.111	-0.203	-0.344	-0.132	0.23	-0.231	-0.216
0.706	0.241	-0.465	-0.473	0.585	-0.112	-0.202	-0.343	-0.133	0.228	-0.231	-0.218
0.711	0.243	-0.467	-0.477	0.589	-0.112	-0.2	-0.345	-0.136	0.227	-0.234	-0.218
0.71	0.243	-0.466	-0.476	0.588	-0.111	-0.199	-0.346	-0.136	0.227	-0.232	-0.217
0.705	0.242	-0.463	-0.473	0.584	-0.11	-0.199	-0.343	-0.134	0.228	-0.23	-0.217
0.706	0.244	-0.462	-0.475	0.583	-0.108	-0.199	-0.341	-0.134	0.229	-0.231	-0.218
0.702	0.242	-0.46	-0.472	0.581	-0.109	-0.204	-0.341	-0.134	0.229	-0.231	-0.214
0.708	0.243	-0.465	-0.475	0.586	-0.111	-0.209	-0.345	-0.137	0.228	-0.233	-0.215
0.714	0.242	-0.471	-0.477	0.592	-0.115	-0.203	-0.346	-0.139	0.225	-0.234	-0.22
0.709	0.243	-0.465	-0.476	0.587	-0.111	-0.201	-0.341	-0.137	0.226	-0.232	-0.217
0.707	0.244	-0.462	-0.475	0.584	-0.109	-0.202	-0.344	-0.136	0.229	-0.231	-0.215
0.708	0.244	-0.464	-0.476	0.585	-0.11	-0.199	-0.344	-0.137	0.228	-0.233	-0.216
0.709	0.245	-0.463	-0.476	0.586	-0.109	-0.202	-0.346	-0.138	0.225	-0.232	-0.216
0.709	0.244	-0.464	-0.476	0.586	-0.11	-0.203	-0.346	-0.138	0.227	-0.23	-0.216
0.71	0.247	-0.462	-0.478	0.585	-0.107	-0.203	-0.344	-0.136	0.228	-0.23	-0.214
0.707	0.247	-0.46	-0.477	0.583	-0.106	-0.204	-0.345	-0.137	0.225	-0.231	-0.214
0.704	0.243	-0.46	-0.473	0.582	-0.108	-0.201	-0.346	-0.14	0.223	-0.234	-0.217
0.703	0.243	-0.46	-0.473	0.581	-0.108	-0.201	-0.348	-0.141	0.224	-0.234	-0.22
0.702	0.244	-0.458	-0.473	0.58	-0.106	-0.202	-0.345	-0.142	0.223	-0.234	-0.218
0.704	0.246	-0.458	-0.474	0.581	-0.106	-0.202	-0.345	-0.14	0.224	-0.233	-0.217
0.705	0.246	-0.459	-0.475	0.582	-0.106	-0.201	-0.347	-0.141	0.224	-0.232	-0.219
0.702	0.244	-0.458	-0.473	0.58	-0.106	-0.201	-0.348	-0.142	0.223	-0.233	-0.218
0.701	0.244	-0.457	-0.472	0.579	-0.106	-0.203	-0.347	-0.141	0.224	-0.233	-0.219
0.702	0.246	-0.456	-0.474	0.579	-0.104	-0.203	-0.346	-0.14	0.224	-0.232	-0.218
0.706	0.251	-0.456	-0.478	0.58	-0.102	-0.2	-0.345	-0.139	0.227	-0.23	-0.216
0.707	0.254	-0.454	-0.48	0.58	-0.1	-0.2	-0.344	-0.138	0.227	-0.228	-0.215
0.709	0.259	-0.45	-0.483	0.58	-0.096	-0.203	-0.34	-0.132	0.231	-0.224	-0.212
0.708	0.263	-0.446	-0.484	0.577	-0.092	-0.199	-0.337	-0.128	0.235	-0.221	-0.211
0.706	0.266	-0.44	-0.485	0.573	-0.087	-0.198	-0.335	-0.128	0.236	-0.221	-0.211
0.709	0.271	-0.438	-0.489	0.573	-0.084	-0.204	-0.336	-0.126	0.237	-0.219	-0.21
0.709	0.276	-0.432	-0.492	0.571	-0.079	-0.205	-0.336	-0.125	0.239	-0.218	-0.209
0.715	0.283	-0.43	-0.498	0.573	-0.073	-0.202	-0.33	-0.121	0.241	-0.214	-0.207
0.717	0.289	-0.427	-0.502	0.572	-0.069	-0.202	-0.326	-0.115	0.246	-0.208	-0.204
0.715	0.294	-0.42	-0.504	0.567	-0.063	-0.196	-0.321	-0.111	0.249	-0.205	-0.202
0.717	0.3	-0.416	-0.508	0.566	-0.058	-0.194	-0.318	-0.107	0.25	-0.203	-0.2
0.72	0.306	-0.414	-0.512	0.567	-0.054	-0.195	-0.317	-0.105	0.253	-0.201	-0.198
0.715	0.307	-0.407	-0.51	0.561	-0.051	-0.194	-0.315	-0.103	0.255	-0.2	-0.199
0.711	0.307	-0.404	-0.508	0.556	-0.049	-0.195	-0.315	-0.102	0.255	-0.201	-0.199
0.712	0.305	-0.406	-0.508	0.559	-0.051	-0.192	-0.314	-0.102	0.255	-0.202	-0.199
0.715	0.309	-0.405	-0.512	0.559	-0.048	-0.193	-0.314	-0.101	0.258	-0.199	-0.198
0.716	0.314	-0.401	-0.514	0.558	-0.043	-0.199	-0.314	-0.101	0.26	-0.198	-0.195
0.714	0.314	-0.4	-0.513	0.556	-0.043	-0.198	-0.312	-0.099	0.261	-0.196	-0.193
0.721	0.32	-0.401	-0.52	0.56	-0.04	-0.195	-0.31	-0.096	0.264	-0.192	-0.191
0.724	0.325	-0.399	-0.524	0.56	-0.036	-0.195	-0.307	-0.093	0.267	-0.189	-0.188
0.725	0.325	-0.401	-0.524	0.562	-0.038	-0.197	-0.308	-0.092	0.267	-0.189	-0.186
0.728	0.326	-0.401	-0.526	0.564	-0.037	-0.202	-0.308	-0.093	0.266	-0.192	-0.188
0.727	0.328	-0.399	-0.527	0.562	-0.035	-0.198	-0.307	-0.093	0.268	-0.19	-0.186
0.728	0.329	-0.4	-0.528	0.564	-0.035	-0.192	-0.305	-0.093	0.268	-0.192	-0.187
0.727	0.333	-0.394	-0.529	0.56	-0.03	-0.188	-0.302	-0.091	0.269	-0.191	-0.188
0.728	0.337	-0.391	-0.531	0.559	-0.028	-0.192	-0.302	-0.09	0.269	-0.189	-0.186
0.729	0.34	-0.39	-0.533	0.558	-0.025	-0.19	-0.297	-0.086	0.272	-0.187	-0.185
0.726	0.343	-0.383	-0.534	0.554	-0.02	-0.181	-0.288	-0.078	0.278	-0.184	-0.183
0.73	0.343	-0.387	-0.535	0.557	-0.022	-0.185	-0.287	-0.079	0.276	-0.186	-0.186
0.728	0.338	-0.39	-0.532	0.558	-0.026	-0.176	-0.288	-0.083	0.274	-0.189	-0.189
0.724	0.334	-0.391	-0.529	0.557	-0.029	-0.179	-0.291	-0.085	0.272	-0.192	-0.191
0.726	0.337	-0.39	-0.531	0.557	-0.026	-0.185	-0.291	-0.085	0.272	-0.192	-0.191
0.724	0.341	-0.383	-0.532	0.553	-0.021	-0.184	-0.287	-0.083	0.276	-0.189	-0.189
0.723	0.344	-0.378	-0.533	0.55	-0.017	-0.192	-0.292	-0.084	0.275	-0.188	-0.191
0.721	0.347	-0.373	-0.533	0.546	-0.013	-0.195	-0.297	-0.084	0.275	-0.189	-0.192
0.722	0.352	-0.369	-0.537	0.545	-0.009	-0.209	-0.302	-0.085	0.275	-0.186	-0.188
0.719	0.358	-0.36	-0.538	0.539	-0.001	-0.219	-0.304	-0.086	0.276	-0.183	-0.184
0.719	0.363	-0.356	-0.541	0.537	0.004	-0.225	-0.307	-0.086	0.276	-0.184	-0.183
0.722	0.368	-0.354	-0.544	0.537	0.007	-0.235	-0.314	-0.09	0.275	-0.184	-0.182
0.717	0.371	-0.345	-0.544	0.531	0.013	-0.243	-0.321	-0.091	0.275	-0.183	-0.181
0.72	0.376	-0.344	-0.547	0.532	0.015	-0.248	-0.323	-0.089	0.278	-0.179	-0.178
0.721	0.375	-0.345	-0.547	0.532	0.015	-0.249	-0.327	-0.091	0.279	-0.179	-0.177
0.716	0.369	-0.346	-0.542	0.531	0.011	-0.254	-0.334	-0.099	0.273	-0.182	-0.179
0.715	0.368	-0.346	-0.541	0.53	0.011	-0.257	-0.338	-0.104	0.271	-0.183	-0.18
0.718	0.369	-0.348	-0.543	0.532	0.011	-0.261	-0.34	-0.105	0.269	-0.185	-0.179
0.719	0.369	-0.349	-0.544	0.534	0.01	-0.264	-0.342	-0.105	0.267	-0.184	-0.178
0.72	0.374	-0.345	-0.547	0.532	0.015	-0.265	-0.342	-0.104	0.27	-0.181	-0.176
0.724	0.382	-0.342	-0.552	0.533	0.019	-0.262	-0.341	-0.102	0.275	-0.177	-0.172
0.721	0.379	-0.343	-0.549	0.531	0.018	-0.256	-0.338	-0.1	0.276	-0.177	-0.171
0.724	0.377	-0.346	-0.55	0.535	0.015	-0.256	-0.337	-0.1	0.275	-0.175	-0.17
0.731	0.381	-0.349	-0.555	0.539	0.015	-0.26	-0.337	-0.099	0.276	-0.173	-0.169
0.734	0.382	-0.352	-0.557	0.542	0.015	-0.261	-0.334	-0.095	0.279	-0.171	-0.168
0.735	0.387	-0.347	-0.56	0.541	0.019	-0.257	-0.331	-0.09	0.284	-0.166	-0.165
0.733	0.39	-0.344	-0.561	0.538	0.024	-0.253	-0.329	-0.088	0.288	-0.163	-0.161
0.736	0.39	-0.346	-0.562	0.54	0.022	-0.254	-0.329	-0.087	0.291	-0.161	-0.158
0.737	0.393	-0.344	-0.565	0.539	0.025	-0.257	-0.329	-0.086	0.293	-0.16	-0.157
0.742	0.393	-0.349	-0.567	0.545	0.022	-0.256	-0.329	-0.086	0.293	-0.159	-0.155
0.748	0.396	-0.352	-0.572	0.55	0.022	-0.256	-0.325	-0.081	0.296	-0.157	-0.153
0.75	0.399	-0.351	-0.575	0.55	0.024	-0.253	-0.32	-0.076	0.3	-0.152	-0.149
0.75	0.394	-0.356	-0.572	0.553	0.019	-0.254	-0.324	-0.079	0.299	-0.153	-0.152
0.75	0.393	-0.357	-0.572	0.553	0.018	-0.259	-0.324	-0.081	0.3	-0.154	-0.154
0.755	0.392	-0.363	-0.573	0.558	0.014	-0.258	-0.326	-0.084	0.298	-0.154	-0.151
0.756	0.389	-0.367	-0.573	0.561	0.011	-0.254	-0.327	-0.086	0.296	-0.155	-0.152
0.759	0.39	-0.369	-0.574	0.564	0.01	-0.256	-0.328	-0.086	0.295	-0.155	-0.152
0.767	0.388	-0.379	-0.578	0.573	0.004	-0.264	-0.332	-0.089	0.291	-0.159	-0.152
0.767	0.388	-0.38	-0.577	0.573	0.004	-0.255	-0.326	-0.088	0.294	-0.157	-0.15
0.767	0.386	-0.382	-0.577	0.575	0.002	-0.254	-0.325	-0.087	0.293	-0.155	-0.149
0.771	0.378	-0.395	-0.574	0.583	-0.009	-0.253	-0.326	-0.088	0.293	-0.157	-0.15
0.774	0.373	-0.401	-0.574	0.588	-0.014	-0.247	-0.322	-0.086	0.292	-0.157	-0.15
0.777	0.37	-0.406	-0.574	0.592	-0.018	-0.247	-0.322	-0.084	0.292	-0.158	-0.151
0.773	0.365	-0.408	-0.569	0.591	-0.022	-0.25	-0.327	-0.09	0.288	-0.161	-0.151
0.768	0.359	-0.408	-0.564	0.588	-0.025	-0.252	-0.33	-0.096	0.282	-0.164	-0.153
0.765	0.356	-0.409	-0.56	0.587	-0.026	-0.245	-0.333	-0.1	0.28	-0.166	-0.155
0.761	0.357	-0.404	-0.559	0.582	-0.023	-0.246	-0.34	-0.103	0.276	-0.167	-0.157
0.762	0.356	-0.406	-0.558	0.584	-0.025	-0.253	-0.346	-0.109	0.276	-0.166	-0.157
0.763	0.357	-0.406	-0.559	0.584	-0.025	-0.255	-0.35	-0.114	0.272	-0.168	-0.155
0.759	0.355	-0.404	-0.557	0.582	-0.025	-0.255	-0.35	-0.115	0.27	-0.17	-0.157
0.76	0.352	-0.407	-0.556	0.584	-0.028	-0.259	-0.355	-0.118	0.268	-0.172	-0.155
0.76	0.354	-0.406	-0.557	0.583	-0.025	-0.262	-0.358	-0.118	0.268	-0.172	-0.154
0.757	0.352	-0.405	-0.554	0.58	-0.025	-0.262	-0.358	-0.118	0.269	-0.169	-0.156
0.757	0.35	-0.407	-0.553	0.582	-0.029	-0.259	-0.359	-0.118	0.268	-0.167	-0.153
0.756	0.344	-0.411	-0.55	0.584	-0.034	-0.26	-0.36	-0.12	0.269	-0.169	-0.155
0.748	0.334	-0.414	-0.54	0.581	-0.04	-0.264	-0.361	-0.125	0.264	-0.175	-0.16
0.746	0.331	-0.415	-0.538	0.58	-0.042	-0.256	-0.361	-0.126	0.262	-0.178	-0.165
0.741	0.329	-0.411	-0.534	0.576	-0.042	-0.248	-0.358	-0.122	0.263	-0.176	-0.165
0.734	0.322	-0.412	-0.527	0.573	-0.045	-0.246	-0.356	-0.121	0.261	-0.18	-0.168
0.731	0.312	-0.418	-0.52	0.574	-0.053	-0.239	-0.351	-0.121	0.26	-0.182	-0.171
0.723	0.303	-0.42	-0.513	0.571	-0.058	-0.233	-0.344	-0.121	0.257	-0.183	-0.172
0.723	0.3	-0.423	-0.511	0.573	-0.061	-0.232	-0.346	-0.123	0.255	-0.187	-0.175
0.726	0.298	-0.427	-0.512	0.577	-0.065	-0.231	-0.347	-0.124	0.252	-0.187	-0.176
0.727	0.293	-0.434	-0.51	0.58	-0.07	-0.228	-0.348	-0.128	0.247	-0.192	-0.18
0.722	0.285	-0.436	-0.503	0.579	-0.075	-0.224	-0.351	-0.132	0.243	-0.199	-0.188
0.716	0.281	-0.435	-0.498	0.576	-0.077	-0.222	-0.352	-0.134	0.24	-0.202	-0.19
0.715	0.277	-0.437	-0.495	0.576	-0.08	-0.224	-0.356	-0.139	0.236	-0.204	-0.194
0.71	0.275	-0.435	-0.492	0.572	-0.08	-0.226	-0.359	-0.142	0.232	-0.208	-0.2
0.706	0.27	-0.436	-0.487	0.571	-0.083	-0.226	-0.361	-0.146	0.226	-0.213	-0.203
0.701	0.263	-0.439	-0.481	0.57	-0.088	-0.222	-0.361	-0.152	0.224	-0.219	-0.208
0.705	0.26	-0.445	-0.481	0.575	-0.093	-0.211	-0.361	-0.152	0.222	-0.223	-0.209
0.708	0.262	-0.446	-0.484	0.577	-0.092	-0.218	-0.358	-0.148	0.223	-0.221	-0.208
0.701	0.259	-0.441	-0.479	0.571	-0.091	-0.217	-0.355	-0.148	0.224	-0.22	-0.21
0.702	0.259	-0.444	-0.48	0.573	-0.092	-0.205	-0.355	-0.151	0.22	-0.224	-0.212
0.703	0.258	-0.445	-0.48	0.574	-0.093	-0.203	-0.356	-0.151	0.218	-0.225	-0.212
0.702	0.255	-0.447	-0.478	0.574	-0.096	-0.206	-0.357	-0.152	0.217	-0.228	-0.216
0.702	0.255	-0.448	-0.478	0.575	-0.097	-0.208	-0.356	-0.153	0.216	-0.23	-0.218
0.703	0.253	-0.45	-0.477	0.576	-0.099	-0.208	-0.359	-0.154	0.214	-0.231	-0.216
0.705	0.252	-0.454	-0.478	0.579	-0.101	-0.213	-0.363	-0.159	0.211	-0.234	-0.217
0.7	0.249	-0.451	-0.474	0.575	-0.101	-0.21	-0.362	-0.16	0.21	-0.235	-0.22
0.701	0.248	-0.453	-0.474	0.576	-0.102	-0.209	-0.361	-0.162	0.208	-0.237	-0.22
0.701	0.246	-0.456	-0.473	0.578	-0.104	-0.213	-0.364	-0.165	0.206	-0.237	-0.222
0.698	0.242	-0.457	-0.47	0.577	-0.107	-0.207	-0.367	-0.165	0.206	-0.239	-0.222
0.702	0.244	-0.457	-0.473	0.579	-0.106	-0.206	-0.366	-0.165	0.206	-0.239	-0.221
0.704	0.244	-0.459	-0.474	0.581	-0.107	-0.212	-0.365	-0.168	0.204	-0.24	-0.221
0.706	0.244	-0.462	-0.475	0.584	-0.108	-0.208	-0.364	-0.167	0.205	-0.24	-0.22
0.706	0.244	-0.461	-0.475	0.583	-0.108	-0.207	-0.364	-0.166	0.204	-0.237	-0.221
0.705	0.242	-0.463	-0.473	0.583	-0.11	-0.207	-0.366	-0.169	0.205	-0.237	-0.221
0.705	0.241	-0.464	-0.472	0.584	-0.111	-0.204	-0.367	-0.17	0.205	-0.239	-0.222
0.705	0.241	-0.464	-0.472	0.584	-0.111	-0.206	-0.365	-0.169	0.205	-0.24	-0.222
0.705	0.241	-0.465	-0.472	0.585	-0.112	-0.204	-0.364	-0.169	0.207	-0.239	-0.221
0.704	0.239	-0.465	-0.471	0.584	-0.113	-0.206	-0.364	-0.169	0.206	-0.239	-0.222
0.707	0.241	-0.466	-0.473	0.587	-0.113	-0.206	-0.364	-0.167	0.205	-0.239	-0.221
0.706	0.239	-0.467	-0.472	0.586	-0.114	-0.203	-0.363	-0.168	0.204	-0.238	-0.222
0.704	0.237	-0.467	-0.47	0.585	-0.115	-0.206	-0.363	-0.168	0.204	-0.239	-0.222
0.705	0.237	-0.468	-0.471	0.586	-0.115	-0.207	-0.366	-0.17	0.203	-0.241	-0.224
0.7	0.234	-0.466	-0.467	0.583	-0.116	-0.202	-0.362	-0.169	0.203	-0.242	-0.224
0.701	0.236	-0.464	-0.468	0.582	-0.114	-0.198	-0.356	-0.163	0.207	-0.239	-0.223
0.702	0.238	-0.464	-0.47	0.583	-0.113	-0.198	-0.357	-0.165	0.206	-0.24	-0.223
0.7	0.237	-0.463	-0.468	0.581	-0.113	-0.199	-0.359	-0.165	0.205	-0.24	-0.224
0.7	0.238	-0.462	-0.469	0.581	-0.112	-0.199	-0.356	-0.165	0.206	-0.24	-0.223
0.702	0.238	-0.464	-0.469	0.583	-0.113	-0.196	-0.356	-0.164	0.205	-0.241	-0.222
0.702	0.235	-0.467	-0.469	0.585	-0.116	-0.198	-0.358	-0.165	0.204	-0.24	-0.224
0.703	0.235	-0.468	-0.469	0.586	-0.117	-0.199	-0.359	-0.166	0.204	-0.242	-0.225
0.706	0.236	-0.469	-0.47	0.588	-0.117	-0.199	-0.358	-0.165	0.204	-0.242	-0.225
0.706	0.235	-0.471	-0.47	0.588	-0.118	-0.2	-0.359	-0.166	0.202	-0.243	-0.226
0.701	0.232	-0.469	-0.466	0.584	-0.118	-0.201	-0.359	-0.165	0.204	-0.244	-0.225
0.699	0.231	-0.468	-0.465	0.583	-0.118	-0.2	-0.359	-0.165	0.204	-0.242	-0.224
0.702	0.232	-0.469	-0.467	0.585	-0.119	-0.192	-0.357	-0.164	0.205	-0.242	-0.223
0.7	0.231	-0.469	-0.465	0.584	-0.119	-0.19	-0.356	-0.164	0.207	-0.243	-0.222
0.702	0.231	-0.47	-0.466	0.586	-0.119	-0.194	-0.357	-0.165	0.204	-0.244	-0.223
0.703	0.231	-0.472	-0.467	0.587	-0.121	-0.199	-0.358	-0.165	0.204	-0.243	-0.223
0.702	0.231	-0.47	-0.466	0.586	-0.12	-0.198	-0.358	-0.165	0.203	-0.242	-0.224
0.701	0.231	-0.47	-0.466	0.586	-0.12	-0.19	-0.357	-0.162	0.204	-0.242	-0.222
0.699	0.229	-0.47	-0.464	0.585	-0.121	-0.192	-0.357	-0.163	0.207	-0.241	-0.221
0.699	0.23	-0.469	-0.464	0.584	-0.12	-0.192	-0.356	-0.164	0.207	-0.241	-0.221
0.7	0.228	-0.472	-0.464	0.586	-0.122	-0.194	-0.355	-0.163	0.206	-0.241	-0.222
0.699	0.228	-0.471	-0.463	0.585	-0.122	-0.195	-0.356	-0.165	0.205	-0.24	-0.225
0.699	0.228	-0.471	-0.463	0.585	-0.121	-0.193	-0.357	-0.163	0.206	-0.241	-0.224
0.699	0.227	-0.472	-0.463	0.586	-0.122	-0.195	-0.357	-0.163	0.209	-0.24	-0.223
0.699	0.228	-0.471	-0.463	0.585	-0.122	-0.193	-0.357	-0.163	0.209	-0.24	-0.223
0.699	0.228	-0.471	-0.463	0.585	-0.122	-0.191	-0.357	-0.162	0.209	-0.24	-0.224
0.699	0.227	-0.472	-0.463	0.586	-0.122	-0.191	-0.356	-0.163	0.208	-0.24	-0.224
0.7	0.229	-0.471	-0.465	0.586	-0.121	-0.193	-0.354	-0.164	0.206	-0.24	-0.225
0.699	0.228	-0.47	-0.463	0.585	-0.121	-0.192	-0.355	-0.164	0.206	-0.241	-0.225
0.699	0.228	-0.471	-0.463	0.585	-0.121	-0.192	-0.355	-0.166	0.205	-0.243	-0.225
0.701	0.23	-0.471	-0.466	0.586	-0.12	-0.193	-0.355	-0.167	0.205	-0.243	-0.225
0.699	0.229	-0.47	-0.464	0.585	-0.121	-0.193	-0.355	-0.165	0.205	-0.242	-0.225
0.696	0.227	-0.469	-0.461	0.582	-0.121	-0.194	-0.356	-0.165	0.203	-0.242	-0.224
0.698	0.23	-0.469	-0.464	0.583	-0.12	-0.199	-0.357	-0.167	0.203	-0.244	-0.225
0.698	0.229	-0.469	-0.463	0.583	-0.12	-0.202	-0.357	-0.167	0.205	-0.242	-0.224
0.696	0.228	-0.469	-0.462	0.582	-0.12	-0.191	-0.355	-0.164	0.206	-0.239	-0.223
0.699	0.229	-0.47	-0.464	0.584	-0.12	-0.192	-0.357	-0.164	0.205	-0.241	-0.224
0.699	0.229	-0.47	-0.464	0.584	-0.12	-0.198	-0.357	-0.165	0.206	-0.24	-0.225
0.698	0.231	-0.467	-0.464	0.582	-0.118	-0.195	-0.355	-0.166	0.206	-0.24	-0.225
0.694	0.229	-0.466	-0.461	0.58	-0.118	-0.194	-0.357	-0.166	0.206	-0.241	-0.225
0.694	0.227	-0.467	-0.46	0.58	-0.119	-0.193	-0.357	-0.167	0.205	-0.24	-0.225
0.695	0.23	-0.466	-0.462	0.58	-0.118	-0.194	-0.355	-0.165	0.208	-0.239	-0.223
0.696	0.231	-0.465	-0.463	0.58	-0.117	-0.194	-0.356	-0.163	0.208	-0.241	-0.223
0.695	0.23	-0.466	-0.462	0.58	-0.118	-0.194	-0.355	-0.164	0.206	-0.242	-0.226
0.69	0.232	-0.459	-0.461	0.574	-0.114	-0.193	-0.354	-0.165	0.204	-0.243	-0.227
0.691	0.236	-0.455	-0.464	0.573	-0.11	-0.19	-0.352	-0.162	0.203	-0.243	-0.227
0.69	0.244	-0.445	-0.467	0.567	-0.101	-0.194	-0.346	-0.157	0.208	-0.241	-0.228
0.681	0.257	-0.425	-0.469	0.552	-0.084	-0.191	-0.343	-0.158	0.206	-0.243	-0.227
0.67	0.268	-0.403	-0.469	0.536	-0.068	-0.173	-0.331	-0.154	0.207	-0.242	-0.227
0.657	0.281	-0.376	-0.469	0.516	-0.048	-0.162	-0.314	-0.147	0.207	-0.243	-0.23
0.646	0.294	-0.353	-0.47	0.499	-0.029	-0.151	-0.298	-0.147	0.198	-0.254	-0.239
0.634	0.311	-0.323	-0.472	0.478	-0.006	-0.132	-0.273	-0.142	0.19	-0.266	-0.249
0.615	0.332	-0.283	-0.473	0.449	0.024	-0.111	-0.24	-0.126	0.191	-0.269	-0.253
0.593	0.355	-0.237	-0.474	0.415	0.059	-0.088	-0.205	-0.111	0.193	-0.27	-0.255
0.576	0.385	-0.191	-0.479	0.383	0.097	-0.061	-0.167	-0.094	0.193	-0.275	-0.261
0.56	0.413	-0.147	-0.486	0.353	0.133	-0.037	-0.13	-0.077	0.196	-0.276	-0.264
0.546	0.428	-0.118	-0.487	0.332	0.155	-0.014	-0.096	-0.061	0.198	-0.278	-0.268
0.534	0.44	-0.094	-0.487	0.314	0.173	0.016	-0.05	-0.036	0.203	-0.281	-0.274
0.524	0.454	-0.071	-0.489	0.297	0.192	0.047	-0.009	-0.024	0.2	-0.287	-0.281
0.518	0.456	-0.063	-0.486	0.29	0.197	0.077	0.028	-0.009	0.199	-0.292	-0.287
0.512	0.465	-0.049	-0.488	0.281	0.208	0.103	0.068	0.024	0.22	-0.281	-0.286
0.51	0.471	-0.04	-0.49	0.275	0.216	0.13	0.118	0.068	0.243	-0.269	-0.287
0.515	0.469	-0.046	-0.491	0.28	0.211	0.157	0.185	0.129	0.266	-0.264	-0.289
0.523	0.469	-0.053	-0.496	0.288	0.208	0.178	0.245	0.197	0.299	-0.247	-0.281
0.542	0.479	-0.062	-0.51	0.302	0.209	0.182	0.281	0.254	0.343	-0.214	-0.261
0.578	0.485	-0.092	-0.531	0.335	0.197	0.168	0.302	0.301	0.39	-0.176	-0.233
0.625	0.48	-0.145	-0.552	0.386	0.168	0.146	0.329	0.361	0.449	-0.123	-0.198
0.677	0.494	-0.183	-0.586	0.43	0.156	0.118	0.348	0.43	0.519	-0.061	-0.152
0.732	0.532	-0.199	-0.632	0.465	0.167	0.073	0.345	0.482	0.585	0.007	-0.094
0.788	0.569	-0.22	-0.678	0.503	0.174	0.021	0.327	0.524	0.655	0.082	-0.034
0.843	0.581	-0.262	-0.712	0.552	0.16	-0.005	0.334	0.568	0.723	0.152	0.017
0.908	0.582	-0.326	-0.745	0.617	0.129	-0.037	0.343	0.638	0.81	0.23	0.066
0.977	0.59	-0.387	-0.783	0.681	0.102	-0.072	0.347	0.713	0.902	0.311	0.123
1.042	0.621	-0.422	-0.831	0.732	0.099	-0.127	0.291	0.766	1.008	0.417	0.199
1.113	0.652	-0.46	-0.882	0.786	0.096	-0.203	0.195	0.831	1.151	0.545	0.286
1.181	0.701	-0.479	-0.94	0.83	0.111	-0.3	0.026	0.812	1.269	0.675	0.386
1.242	0.776	-0.466	-1.009	0.854	0.155	-0.441	-0.226	0.735	1.38	0.813	0.492
1.296	0.841	-0.455	-1.068	0.875	0.193	-0.565	-0.449	0.684	1.506	0.946	0.588
1.35	0.879	-0.469	-1.115	0.909	0.205	-0.674	-0.66	0.649	1.63	1.071	0.674
1.407	0.887	-0.519	-1.147	0.963	0.184	-0.76	-0.813	0.631	1.744	1.178	0.75
1.453	0.815	-0.638	-1.133	1.046	0.088	-0.794	-0.936	0.584	1.817	1.242	0.784
1.484	0.655	-0.828	-1.069	1.155	-0.086	-0.791	-1.04	0.542	1.861	1.258	0.773
1.52	0.514	-1.006	-1.016	1.262	-0.246	-0.776	-1.089	0.551	1.921	1.283	0.772
1.548	0.387	-1.161	-0.967	1.355	-0.387	-0.76	-1.129	0.565	1.966	1.292	0.764
1.565	0.283	-1.282	-0.923	1.423	-0.499	-0.774	-1.218	0.543	1.986	1.28	0.751
1.586	0.206	-1.38	-0.896	1.482	-0.587	-0.816	-1.332	0.497	1.993	1.27	0.749
1.597	0.134	-1.464	-0.866	1.53	-0.664	-0.825	-1.395	0.483	1.999	1.248	0.74
1.601	0.074	-1.528	-0.838	1.564	-0.726	-0.804	-1.421	0.475	1.991	1.212	0.723
1.599	-0.02	-1.619	-0.789	1.609	-0.82	-0.778	-1.447	0.423	1.889	1.114	0.676
1.59	-0.102	-1.692	-0.744	1.641	-0.896	-0.742	-1.484	0.334	1.743	0.99	0.62
1.553	-0.138	-1.69	-0.708	1.621	-0.913	-0.732	-1.583	0.147	1.55	0.857	0.566
1.498	-0.162	-1.661	-0.668	1.579	-0.911	-0.728	-1.681	-0.058	1.349	0.722	0.508
1.438	-0.167	-1.605	-0.635	1.52	-0.885	-0.704	-1.726	-0.242	1.147	0.575	0.442
1.363	-0.167	-1.53	-0.598	1.446	-0.848	-0.665	-1.781	-0.48	0.887	0.395	0.363
1.301	-0.165	-1.466	-0.568	1.383	-0.815	-0.646	-1.832	-0.681	0.668	0.254	0.302
1.246	-0.157	-1.403	-0.544	1.324	-0.779	-0.646	-1.861	-0.863	0.452	0.117	0.243
1.173	-0.146	-1.319	-0.513	1.246	-0.732	-0.607	-1.861	-1.042	0.236	-0.024	0.172
1.085	-0.115	-1.2	-0.485	1.143	-0.657	-0.579	-1.851	-1.182	0.064	-0.139	0.108
0.997	-0.097	-1.093	-0.45	1.044	-0.595	-0.541	-1.814	-1.302	-0.124	-0.272	0.025
0.917	-0.088	-1.006	-0.414	0.962	-0.547	-0.479	-1.759	-1.405	-0.302	-0.398	-0.054
0.856	-0.095	-0.951	-0.381	0.903	-0.522	-0.429	-1.706	-1.479	-0.444	-0.499	-0.123
0.812	-0.114	-0.926	-0.349	0.869	-0.519	-0.379	-1.639	-1.49	-0.521	-0.569	-0.183
0.781	-0.121	-0.902	-0.33	0.842	-0.511	-0.354	-1.581	-1.452	-0.535	-0.6	-0.222
0.757	-0.129	-0.886	-0.314	0.822	-0.507	-0.342	-1.534	-1.408	-0.537	-0.622	-0.254
0.734	-0.145	-0.879	-0.293	0.806	-0.512	-0.305	-1.476	-1.349	-0.529	-0.634	-0.281
0.712	-0.173	-0.884	-0.269	0.798	-0.529	-0.27	-1.407	-1.277	-0.516	-0.646	-0.311
0.694	-0.196	-0.889	-0.248	0.791	-0.542	-0.248	-1.352	-1.212	-0.501	-0.656	-0.337
0.675	-0.207	-0.882	-0.234	0.778	-0.544	-0.247	-1.321	-1.162	-0.48	-0.658	-0.354
0.665	-0.206	-0.871	-0.229	0.767	-0.538	-0.265	-1.31	-1.132	-0.464	-0.66	-0.368
0.662	-0.202	-0.864	-0.23	0.763	-0.533	-0.281	-1.295	-1.108	-0.45	-0.659	-0.38
0.652	-0.189	-0.841	-0.232	0.747	-0.515	-0.292	-1.265	-1.067	-0.423	-0.653	-0.395
0.64	-0.172	-0.812	-0.234	0.726	-0.492	-0.309	-1.238	-1.027	-0.395	-0.645	-0.407
0.633	-0.163	-0.795	-0.235	0.714	-0.479	-0.327	-1.222	-1	-0.375	-0.639	-0.412
0.628	-0.153	-0.781	-0.237	0.704	-0.467	-0.339	-1.202	-0.969	-0.353	-0.628	-0.414
0.626	-0.136	-0.761	-0.245	0.694	-0.449	-0.344	-1.164	-0.925	-0.323	-0.609	-0.411
0.622	-0.113	-0.734	-0.255	0.677	-0.423	-0.325	-1.099	-0.862	-0.279	-0.582	-0.405
0.62	-0.087	-0.707	-0.266	0.662	-0.397	-0.312	-1.044	-0.803	-0.237	-0.554	-0.393
0.622	-0.064	-0.685	-0.279	0.653	-0.374	-0.309	-1.002	-0.76	-0.207	-0.531	-0.384
0.624	-0.046	-0.67	-0.289	0.647	-0.358	-0.3	-0.955	-0.713	-0.177	-0.512	-0.379
0.626	-0.019	-0.645	-0.303	0.636	-0.333	-0.295	-0.902	-0.659	-0.139	-0.486	-0.369
0.632	0.011	-0.622	-0.322	0.626	-0.305	-0.295	-0.845	-0.601	-0.095	-0.455	-0.35
0.648	0.038	-0.611	-0.343	0.629	-0.286	-0.285	-0.779	-0.538	-0.05	-0.421	-0.329
0.665	0.065	-0.601	-0.365	0.632	-0.268	-0.267	-0.71	-0.477	-0.01	-0.394	-0.312
0.677	0.093	-0.585	-0.385	0.631	-0.246	-0.244	-0.639	-0.417	0.028	-0.366	-0.295
0.688	0.124	-0.564	-0.406	0.626	-0.22	-0.22	-0.572	-0.36	0.068	-0.338	-0.277
0.697	0.15	-0.547	-0.423	0.622	-0.199	-0.21	-0.525	-0.319	0.099	-0.314	-0.26
0.705	0.166	-0.539	-0.435	0.622	-0.187	-0.195	-0.484	-0.281	0.122	-0.296	-0.247
0.71	0.174	-0.535	-0.442	0.622	-0.18	-0.184	-0.451	-0.255	0.14	-0.284	-0.241
0.713	0.185	-0.527	-0.449	0.62	-0.171	-0.183	-0.428	-0.234	0.153	-0.274	-0.234
0.712	0.198	-0.514	-0.455	0.613	-0.159	-0.18	-0.407	-0.212	0.167	-0.264	-0.228
0.71	0.206	-0.503	-0.458	0.606	-0.148	-0.177	-0.393	-0.197	0.177	-0.256	-0.223
0.71	0.216	-0.493	-0.463	0.602	-0.139	-0.177	-0.38	-0.183	0.188	-0.247	-0.22
0.711	0.228	-0.483	-0.469	0.597	-0.128	-0.184	-0.365	-0.171	0.195	-0.241	-0.216
0.714	0.236	-0.477	-0.474	0.595	-0.12	-0.189	-0.354	-0.159	0.202	-0.236	-0.214
0.714	0.238	-0.475	-0.476	0.594	-0.118	-0.195	-0.348	-0.152	0.206	-0.233	-0.213
0.714	0.241	-0.472	-0.477	0.593	-0.116	-0.194	-0.342	-0.147	0.208	-0.232	-0.211
0.715	0.244	-0.47	-0.479	0.592	-0.113	-0.19	-0.335	-0.142	0.21	-0.232	-0.211
0.712	0.242	-0.469	-0.476	0.59	-0.113	-0.191	-0.331	-0.14	0.21	-0.229	-0.212
0.708	0.241	-0.467	-0.474	0.587	-0.113	-0.19	-0.329	-0.139	0.211	-0.229	-0.214
0.71	0.244	-0.465	-0.476	0.587	-0.111	-0.187	-0.324	-0.133	0.213	-0.229	-0.212
0.713	0.247	-0.465	-0.479	0.589	-0.109	-0.189	-0.32	-0.13	0.214	-0.228	-0.211
0.71	0.248	-0.462	-0.479	0.586	-0.106	-0.19	-0.319	-0.129	0.217	-0.228	-0.212
0.71	0.252	-0.458	-0.48	0.584	-0.103	-0.189	-0.314	-0.124	0.22	-0.227	-0.212
0.709	0.255	-0.454	-0.481	0.581	-0.099	-0.188	-0.311	-0.122	0.221	-0.227	-0.213
0.707	0.254	-0.453	-0.479	0.58	-0.1	-0.189	-0.31	-0.121	0.222	-0.225	-0.212
0.705	0.252	-0.453	-0.478	0.579	-0.101	-0.19	-0.307	-0.119	0.224	-0.224	-0.213
0.703	0.251	-0.452	-0.476	0.577	-0.101	-0.193	-0.305	-0.117	0.224	-0.226	-0.213
0.709	0.255	-0.454	-0.481	0.581	-0.1	-0.193	-0.301	-0.113	0.227	-0.223	-0.21
0.711	0.259	-0.452	-0.484	0.581	-0.097	-0.19	-0.297	-0.111	0.23	-0.22	-0.209
0.711	0.261	-0.45	-0.485	0.58	-0.095	-0.188	-0.294	-0.106	0.232	-0.219	-0.207
0.711	0.263	-0.449	-0.486	0.58	-0.093	-0.186	-0.291	-0.104	0.233	-0.217	-0.206
0.71	0.262	-0.448	-0.485	0.579	-0.092	-0.189	-0.29	-0.102	0.232	-0.217	-0.207
0.71	0.262	-0.448	-0.485	0.578	-0.092	-0.189	-0.287	-0.101	0.233	-0.216	-0.205
0.709	0.262	-0.447	-0.484	0.578	-0.093	-0.189	-0.285	-0.099	0.236	-0.215	-0.204
0.71	0.264	-0.446	-0.486	0.578	-0.091	-0.19	-0.285	-0.098	0.236	-0.216	-0.203
0.714	0.267	-0.448	-0.49	0.581	-0.09	-0.192	-0.283	-0.096	0.236	-0.215	-0.203
0.716	0.269	-0.448	-0.492	0.582	-0.09	-0.193	-0.281	-0.093	0.238	-0.214	-0.203
0.709	0.266	-0.443	-0.487	0.576	-0.088	-0.19	-0.277	-0.091	0.238	-0.213	-0.203
0.708	0.267	-0.441	-0.487	0.574	-0.087	-0.189	-0.276	-0.089	0.24	-0.212	-0.202
0.712	0.273	-0.439	-0.492	0.575	-0.083	-0.192	-0.274	-0.089	0.242	-0.21	-0.201
0.71	0.272	-0.438	-0.491	0.574	-0.084	-0.193	-0.273	-0.087	0.241	-0.211	-0.203
0.712	0.272	-0.44	-0.491	0.576	-0.084	-0.194	-0.272	-0.086	0.244	-0.209	-0.202
0.713	0.276	-0.438	-0.494	0.575	-0.081	-0.192	-0.269	-0.085	0.245	-0.208	-0.2
0.712	0.276	-0.436	-0.494	0.574	-0.08	-0.193	-0.268	-0.082	0.245	-0.206	-0.199
0.715	0.278	-0.436	-0.496	0.575	-0.079	-0.197	-0.266	-0.079	0.248	-0.206	-0.198
0.716	0.28	-0.436	-0.498	0.576	-0.078	-0.194	-0.264	-0.077	0.249	-0.203	-0.199
0.718	0.28	-0.438	-0.498	0.577	-0.079	-0.196	-0.262	-0.075	0.252	-0.202	-0.196
0.717	0.279	-0.438	-0.498	0.577	-0.08	-0.189	-0.259	-0.074	0.252	-0.202	-0.196
0.716	0.279	-0.436	-0.497	0.576	-0.079	-0.186	-0.257	-0.074	0.251	-0.203	-0.198
0.716	0.281	-0.434	-0.498	0.575	-0.076	-0.191	-0.258	-0.072	0.252	-0.203	-0.199
0.716	0.281	-0.435	-0.498	0.576	-0.077	-0.191	-0.255	-0.07	0.253	-0.2	-0.198
0.718	0.281	-0.436	-0.499	0.578	-0.077	-0.196	-0.255	-0.07	0.254	-0.2	-0.197
0.721	0.282	-0.438	-0.501	0.58	-0.077	-0.197	-0.255	-0.067	0.253	-0.2	-0.197
0.722	0.282	-0.44	-0.502	0.581	-0.079	-0.192	-0.251	-0.064	0.254	-0.198	-0.196
0.721	0.282	-0.438	-0.501	0.579	-0.077	-0.192	-0.25	-0.062	0.257	-0.197	-0.194
0.719	0.283	-0.435	-0.501	0.577	-0.076	-0.193	-0.248	-0.06	0.26	-0.193	-0.193
0.721	0.286	-0.434	-0.503	0.578	-0.074	-0.194	-0.245	-0.058	0.262	-0.193	-0.192
0.723	0.286	-0.436	-0.504	0.58	-0.075	-0.195	-0.245	-0.058	0.261	-0.192	-0.194
0.723	0.286	-0.437	-0.504	0.58	-0.075	-0.194	-0.245	-0.057	0.262	-0.193	-0.193
0.725	0.286	-0.439	-0.505	0.582	-0.076	-0.195	-0.243	-0.056	0.262	-0.193	-0.191
0.726	0.286	-0.439	-0.506	0.582	-0.076	-0.197	-0.242	-0.055	0.261	-0.193	-0.191
0.723	0.288	-0.434	-0.505	0.579	-0.073	-0.196	-0.242	-0.055	0.262	-0.193	-0.188
0.722	0.289	-0.432	-0.505	0.577	-0.071	-0.2	-0.241	-0.053	0.262	-0.192	-0.189
0.723	0.289	-0.434	-0.506	0.579	-0.072	-0.202	-0.243	-0.054	0.262	-0.193	-0.192
0.726	0.291	-0.434	-0.508	0.58	-0.071	-0.195	-0.239	-0.056	0.262	-0.192	-0.189
0.728	0.295	-0.432	-0.511	0.58	-0.069	-0.195	-0.236	-0.052	0.265	-0.19	-0.186
0.727	0.294	-0.432	-0.51	0.579	-0.069	-0.196	-0.238	-0.05	0.267	-0.189	-0.187
0.723	0.293	-0.43	-0.507	0.576	-0.069	-0.196	-0.237	-0.051	0.267	-0.19	-0.185
0.723	0.293	-0.429	-0.508	0.576	-0.068	-0.197	-0.236	-0.048	0.267	-0.189	-0.187
0.724	0.292	-0.431	-0.507	0.578	-0.07	-0.197	-0.237	-0.045	0.266	-0.188	-0.188
0.725	0.293	-0.431	-0.508	0.578	-0.07	-0.197	-0.234	-0.046	0.267	-0.188	-0.186
0.726	0.294	-0.432	-0.509	0.579	-0.069	-0.195	-0.232	-0.044	0.268	-0.188	-0.185
0.725	0.293	-0.431	-0.508	0.578	-0.069	-0.197	-0.233	-0.043	0.268	-0.186	-0.184
0.726	0.297	-0.429	-0.511	0.577	-0.066	-0.197	-0.232	-0.043	0.269	-0.186	-0.185
0.73	0.3	-0.43	-0.514	0.58	-0.065	-0.2	-0.231	-0.04	0.27	-0.185	-0.184
0.73	0.299	-0.43	-0.514	0.58	-0.065	-0.197	-0.229	-0.04	0.271	-0.185	-0.183
0.732	0.3	-0.431	-0.515	0.582	-0.066	-0.194	-0.226	-0.036	0.273	-0.183	-0.181
0.733	0.3	-0.433	-0.516	0.583	-0.067	-0.196	-0.224	-0.034	0.276	-0.182	-0.178
0.73	0.298	-0.431	-0.514	0.581	-0.067	-0.196	-0.224	-0.033	0.276	-0.182	-0.18
0.73	0.298	-0.431	-0.514	0.58	-0.066	-0.198	-0.224	-0.033	0.276	-0.181	-0.18
0.73	0.3	-0.43	-0.514	0.58	-0.066	-0.198	-0.224	-0.032	0.279	-0.179	-0.178
0.737	0.301	-0.435	-0.519	0.586	-0.067	-0.202	-0.223	-0.029	0.28	-0.177	-0.176
0.735	0.303	-0.431	-0.519	0.583	-0.064	-0.197	-0.221	-0.027	0.281	-0.175	-0.175
0.726	0.303	-0.422	-0.515	0.575	-0.059	-0.194	-0.221	-0.026	0.284	-0.175	-0.176
0.731	0.305	-0.425	-0.518	0.578	-0.06	-0.196	-0.221	-0.026	0.284	-0.175	-0.176
0.735	0.308	-0.426	-0.521	0.58	-0.059	-0.197	-0.22	-0.025	0.283	-0.175	-0.175
0.733	0.31	-0.423	-0.521	0.578	-0.057	-0.198	-0.218	-0.022	0.284	-0.174	-0.176
0.737	0.311	-0.425	-0.524	0.581	-0.057	-0.2	-0.218	-0.022	0.285	-0.173	-0.175
0.741	0.313	-0.428	-0.527	0.585	-0.058	-0.202	-0.219	-0.021	0.286	-0.172	-0.175
0.742	0.315	-0.426	-0.528	0.584	-0.056	-0.202	-0.216	-0.018	0.286	-0.17	-0.173
0.741	0.317	-0.424	-0.529	0.583	-0.053	-0.203	-0.216	-0.017	0.288	-0.167	-0.172
0.739	0.314	-0.424	-0.526	0.582	-0.055	-0.201	-0.216	-0.018	0.287	-0.167	-0.173
0.737	0.315	-0.421	-0.525	0.579	-0.053	-0.2	-0.213	-0.013	0.289	-0.166	-0.17
0.738	0.319	-0.418	-0.528	0.578	-0.051	-0.203	-0.215	-0.015	0.29	-0.167	-0.172
0.736	0.315	-0.421	-0.525	0.579	-0.053	-0.204	-0.218	-0.016	0.286	-0.171	-0.172
0.737	0.314	-0.422	-0.525	0.579	-0.054	-0.203	-0.216	-0.012	0.291	-0.168	-0.169
0.74	0.32	-0.42	-0.529	0.58	-0.051	-0.204	-0.215	-0.009	0.291	-0.166	-0.166
0.74	0.321	-0.419	-0.53	0.58	-0.049	-0.203	-0.214	-0.008	0.292	-0.163	-0.165
0.741	0.323	-0.418	-0.531	0.579	-0.048	-0.202	-0.213	-0.006	0.296	-0.163	-0.165
0.74	0.325	-0.416	-0.532	0.578	-0.045	-0.203	-0.212	-0.003	0.297	-0.164	-0.165
0.741	0.324	-0.416	-0.532	0.579	-0.046	-0.203	-0.213	-0.003	0.3	-0.164	-0.164
0.743	0.325	-0.418	-0.533	0.58	-0.046	-0.206	-0.211	-0.001	0.299	-0.162	-0.164
0.743	0.327	-0.416	-0.534	0.58	-0.045	-0.208	-0.21	0	0.301	-0.161	-0.163
0.743	0.328	-0.415	-0.535	0.579	-0.044	-0.206	-0.211	-0.001	0.302	-0.161	-0.162
0.749	0.33	-0.418	-0.539	0.583	-0.044	-0.208	-0.211	0.001	0.302	-0.16	-0.163
0.751	0.332	-0.419	-0.541	0.585	-0.043	-0.208	-0.211	0.003	0.305	-0.156	-0.162
0.746	0.333	-0.413	-0.539	0.58	-0.041	-0.207	-0.211	0.004	0.306	-0.153	-0.159
0.747	0.335	-0.412	-0.54	0.579	-0.038	-0.208	-0.207	0.006	0.306	-0.153	-0.159
0.748	0.335	-0.413	-0.54	0.58	-0.04	-0.209	-0.206	0.009	0.308	-0.152	-0.159
0.749	0.335	-0.414	-0.541	0.582	-0.04	-0.211	-0.207	0.009	0.307	-0.152	-0.158
0.753	0.339	-0.414	-0.545	0.584	-0.038	-0.212	-0.206	0.009	0.308	-0.152	-0.158
0.753	0.34	-0.413	-0.546	0.583	-0.037	-0.212	-0.206	0.011	0.309	-0.149	-0.157
0.75	0.339	-0.412	-0.544	0.581	-0.037	-0.214	-0.205	0.011	0.311	-0.149	-0.156
0.75	0.34	-0.41	-0.545	0.58	-0.035	-0.218	-0.206	0.013	0.314	-0.147	-0.158
0.753	0.344	-0.409	-0.548	0.581	-0.033	-0.218	-0.204	0.015	0.313	-0.146	-0.156
0.753	0.345	-0.408	-0.549	0.581	-0.032	-0.212	-0.203	0.015	0.314	-0.146	-0.155
0.753	0.344	-0.408	-0.548	0.58	-0.032	-0.211	-0.204	0.015	0.316	-0.144	-0.155
0.753	0.347	-0.406	-0.55	0.58	-0.029	-0.215	-0.203	0.017	0.317	-0.144	-0.154
0.756	0.351	-0.405	-0.553	0.58	-0.026	-0.223	-0.203	0.018	0.318	-0.143	-0.154
0.754	0.348	-0.406	-0.551	0.58	-0.029	-0.222	-0.202	0.018	0.318	-0.142	-0.154
0.754	0.349	-0.405	-0.551	0.58	-0.028	-0.221	-0.202	0.022	0.319	-0.141	-0.154
0.755	0.352	-0.403	-0.554	0.579	-0.025	-0.226	-0.203	0.024	0.323	-0.139	-0.151
0.752	0.353	-0.399	-0.552	0.575	-0.022	-0.226	-0.203	0.022	0.324	-0.139	-0.151
0.752	0.354	-0.397	-0.553	0.575	-0.021	-0.225	-0.203	0.024	0.322	-0.138	-0.151
0.753	0.357	-0.396	-0.554	0.575	-0.019	-0.224	-0.197	0.026	0.326	-0.137	-0.152
0.755	0.358	-0.397	-0.556	0.576	-0.019	-0.229	-0.2	0.024	0.326	-0.138	-0.15
0.758	0.36	-0.398	-0.559	0.577	-0.018	-0.23	-0.201	0.025	0.327	-0.138	-0.148
0.754	0.362	-0.392	-0.558	0.573	-0.015	-0.224	-0.196	0.029	0.329	-0.132	-0.146
0.754	0.364	-0.39	-0.559	0.572	-0.013	-0.227	-0.195	0.029	0.328	-0.13	-0.145
0.757	0.366	-0.391	-0.561	0.574	-0.013	-0.229	-0.195	0.03	0.331	-0.129	-0.144
0.757	0.365	-0.392	-0.561	0.574	-0.013	-0.228	-0.195	0.032	0.332	-0.126	-0.143
0.758	0.368	-0.39	-0.563	0.574	-0.011	-0.232	-0.196	0.033	0.335	-0.126	-0.142
0.757	0.369	-0.388	-0.562	0.573	-0.009	-0.233	-0.197	0.034	0.338	-0.124	-0.142
0.758	0.37	-0.388	-0.564	0.573	-0.009	-0.233	-0.194	0.033	0.34	-0.122	-0.14
0.76	0.375	-0.386	-0.568	0.573	-0.005	-0.235	-0.194	0.035	0.341	-0.12	-0.137
0.762	0.376	-0.387	-0.569	0.575	-0.005	-0.237	-0.192	0.037	0.344	-0.117	-0.136
0.764	0.379	-0.386	-0.572	0.575	-0.003	-0.235	-0.189	0.04	0.347	-0.114	-0.133
0.764	0.381	-0.383	-0.572	0.573	-0.001	-0.236	-0.19	0.041	0.348	-0.114	-0.132
0.763	0.383	-0.381	-0.573	0.572	0.001	-0.237	-0.191	0.041	0.348	-0.112	-0.132
0.764	0.385	-0.38	-0.574	0.572	0.003	-0.238	-0.19	0.043	0.35	-0.108	-0.13
0.764	0.388	-0.377	-0.576	0.571	0.005	-0.241	-0.191	0.042	0.351	-0.108	-0.129
0.767	0.39	-0.378	-0.579	0.573	0.006	-0.244	-0.191	0.042	0.352	-0.104	-0.128
0.769	0.393	-0.378	-0.581	0.573	0.007	-0.246	-0.192	0.043	0.355	-0.102	-0.126
0.767	0.394	-0.374	-0.581	0.571	0.009	-0.248	-0.191	0.043	0.356	-0.101	-0.123
0.767	0.395	-0.372	-0.581	0.57	0.011	-0.246	-0.19	0.044	0.359	-0.099	-0.12
0.768	0.4	-0.368	-0.584	0.569	0.015	-0.251	-0.191	0.044	0.358	-0.099	-0.119
0.772	0.403	-0.369	-0.588	0.571	0.017	-0.257	-0.191	0.043	0.358	-0.097	-0.119
0.774	0.406	-0.368	-0.591	0.571	0.019	-0.256	-0.191	0.044	0.36	-0.095	-0.118
0.773	0.407	-0.366	-0.59	0.57	0.021	-0.253	-0.191	0.043	0.361	-0.094	-0.116
0.774	0.41	-0.364	-0.592	0.569	0.024	-0.258	-0.19	0.043	0.363	-0.091	-0.113
0.777	0.414	-0.362	-0.596	0.569	0.026	-0.261	-0.19	0.044	0.365	-0.087	-0.112
0.78	0.416	-0.363	-0.598	0.572	0.026	-0.258	-0.189	0.045	0.367	-0.086	-0.11
0.781	0.42	-0.361	-0.6	0.571	0.029	-0.261	-0.191	0.048	0.367	-0.083	-0.107
0.78	0.418	-0.361	-0.599	0.571	0.029	-0.262	-0.191	0.046	0.368	-0.082	-0.105
0.781	0.419	-0.361	-0.6	0.571	0.029	-0.266	-0.191	0.045	0.369	-0.079	-0.104
0.781	0.423	-0.358	-0.602	0.57	0.033	-0.271	-0.193	0.046	0.371	-0.078	-0.101
0.782	0.427	-0.355	-0.604	0.568	0.036	-0.269	-0.192	0.044	0.372	-0.077	-0.099
0.78	0.428	-0.352	-0.604	0.567	0.037	-0.27	-0.192	0.044	0.374	-0.072	-0.097
0.779	0.427	-0.352	-0.603	0.566	0.037	-0.271	-0.193	0.045	0.375	-0.068	-0.093
0.783	0.429	-0.353	-0.606	0.568	0.038	-0.275	-0.194	0.043	0.376	-0.067	-0.091
0.787	0.433	-0.353	-0.61	0.57	0.04	-0.279	-0.193	0.045	0.379	-0.066	-0.089
0.788	0.437	-0.351	-0.613	0.57	0.043	-0.281	-0.194	0.044	0.38	-0.061	-0.086
0.787	0.438	-0.35	-0.613	0.569	0.044	-0.283	-0.195	0.042	0.381	-0.06	-0.083
0.792	0.442	-0.35	-0.617	0.571	0.046	-0.286	-0.194	0.043	0.381	-0.061	-0.084
0.795	0.445	-0.35	-0.62	0.573	0.047	-0.287	-0.196	0.042	0.382	-0.059	-0.084
0.789	0.445	-0.344	-0.617	0.567	0.051	-0.287	-0.196	0.042	0.384	-0.055	-0.081
0.791	0.45	-0.342	-0.621	0.567	0.054	-0.288	-0.196	0.042	0.385	-0.051	-0.081
0.795	0.453	-0.343	-0.624	0.569	0.054	-0.295	-0.197	0.04	0.386	-0.049	-0.077
0.795	0.456	-0.339	-0.625	0.567	0.059	-0.298	-0.197	0.038	0.386	-0.047	-0.076
0.798	0.463	-0.336	-0.63	0.567	0.063	-0.295	-0.199	0.037	0.386	-0.045	-0.074
0.798	0.465	-0.334	-0.631	0.566	0.066	-0.3	-0.201	0.036	0.388	-0.043	-0.074
0.799	0.467	-0.333	-0.632	0.566	0.067	-0.304	-0.2	0.035	0.39	-0.042	-0.073
0.797	0.468	-0.33	-0.632	0.564	0.069	-0.305	-0.199	0.034	0.392	-0.038	-0.071
0.797	0.47	-0.327	-0.633	0.561	0.072	-0.304	-0.199	0.034	0.393	-0.035	-0.07
0.804	0.478	-0.326	-0.641	0.565	0.076	-0.305	-0.199	0.034	0.394	-0.034	-0.067
0.804	0.479	-0.325	-0.641	0.564	0.077	-0.308	-0.201	0.032	0.396	-0.031	-0.065
0.805	0.479	-0.325	-0.642	0.565	0.077	-0.312	-0.201	0.029	0.396	-0.029	-0.063
0.805	0.483	-0.322	-0.644	0.564	0.081	-0.316	-0.199	0.029	0.398	-0.028	-0.061
0.805	0.485	-0.32	-0.645	0.562	0.083	-0.316	-0.199	0.029	0.401	-0.023	-0.057
0.807	0.486	-0.321	-0.646	0.564	0.083	-0.32	-0.2	0.029	0.402	-0.021	-0.056
0.808	0.489	-0.319	-0.648	0.563	0.085	-0.325	-0.202	0.027	0.402	-0.019	-0.056
0.809	0.493	-0.317	-0.651	0.562	0.088	-0.326	-0.203	0.026	0.403	-0.018	-0.052
0.81	0.496	-0.314	-0.653	0.562	0.091	-0.325	-0.203	0.026	0.406	-0.016	-0.051
0.812	0.499	-0.314	-0.655	0.562	0.093	-0.325	-0.203	0.025	0.407	-0.013	-0.049
0.812	0.499	-0.313	-0.655	0.562	0.093	-0.327	-0.203	0.025	0.409	-0.01	-0.048
0.815	0.502	-0.312	-0.658	0.564	0.095	-0.329	-0.202	0.026	0.409	-0.009	-0.046
0.815	0.504	-0.311	-0.659	0.563	0.097	-0.33	-0.203	0.024	0.409	-0.008	-0.044
0.811	0.503	-0.308	-0.657	0.56	0.097	-0.332	-0.203	0.022	0.411	-0.005	-0.043
0.813	0.505	-0.307	-0.659	0.56	0.1	-0.332	-0.203	0.021	0.414	-0.004	-0.041
0.816	0.509	-0.306	-0.662	0.561	0.102	-0.335	-0.203	0.022	0.416	-0.002	-0.041
0.819	0.511	-0.307	-0.665	0.562	0.102	-0.341	-0.204	0.021	0.417	0.001	-0.04
0.822	0.514	-0.307	-0.668	0.565	0.104	-0.337	-0.203	0.022	0.419	0.003	-0.037
0.823	0.52	-0.303	-0.671	0.562	0.108	-0.335	-0.201	0.023	0.42	0.005	-0.035
0.822	0.52	-0.302	-0.671	0.561	0.109	-0.337	-0.198	0.025	0.424	0.007	-0.032
0.825	0.521	-0.303	-0.673	0.564	0.11	-0.338	-0.198	0.027	0.427	0.007	-0.03
0.826	0.524	-0.302	-0.675	0.564	0.112	-0.342	-0.2	0.025	0.426	0.009	-0.029
0.828	0.525	-0.302	-0.676	0.565	0.112	-0.345	-0.198	0.025	0.427	0.011	-0.029
0.829	0.529	-0.3	-0.679	0.565	0.115	-0.342	-0.197	0.026	0.428	0.013	-0.028
0.83	0.53	-0.298	-0.679	0.564	0.116	-0.335	-0.194	0.029	0.433	0.015	-0.026
0.829	0.53	-0.298	-0.679	0.564	0.116	-0.338	-0.193	0.029	0.434	0.015	-0.025
0.828	0.531	-0.297	-0.679	0.562	0.117	-0.339	-0.191	0.029	0.434	0.018	-0.025
0.828	0.531	-0.297	-0.679	0.562	0.117	-0.339	-0.19	0.032	0.434	0.018	-0.025
0.829	0.53	-0.298	-0.679	0.563	0.116	-0.339	-0.189	0.034	0.434	0.018	-0.025
0.829	0.53	-0.299	-0.679	0.564	0.115	-0.336	-0.184	0.036	0.436	0.021	-0.022
0.829	0.529	-0.3	-0.678	0.564	0.115	-0.335	-0.18	0.038	0.439	0.022	-0.022
0.83	0.529	-0.3	-0.679	0.565	0.114	-0.336	-0.179	0.04	0.441	0.022	-0.022
0.828	0.527	-0.3	-0.677	0.564	0.114	-0.334	-0.178	0.041	0.443	0.024	-0.022
0.829	0.528	-0.301	-0.678	0.565	0.114	-0.333	-0.173	0.045	0.445	0.027	-0.023
0.83	0.531	-0.299	-0.68	0.565	0.116	-0.331	-0.171	0.047	0.447	0.027	-0.021
0.828	0.528	-0.299	-0.677	0.563	0.115	-0.329	-0.169	0.049	0.447	0.025	-0.021
0.827	0.526	-0.3	-0.676	0.564	0.114	-0.327	-0.165	0.051	0.45	0.026	-0.021
0.828	0.527	-0.3	-0.677	0.564	0.114	-0.327	-0.166	0.052	0.45	0.025	-0.021
0.828	0.526	-0.301	-0.677	0.564	0.113	-0.324	-0.163	0.054	0.449	0.024	-0.021
0.826	0.524	-0.301	-0.674	0.563	0.112	-0.319	-0.157	0.059	0.453	0.025	-0.022
0.826	0.52	-0.305	-0.672	0.565	0.107	-0.317	-0.155	0.061	0.454	0.026	-0.022
0.824	0.518	-0.305	-0.67	0.565	0.106	-0.316	-0.152	0.065	0.456	0.028	-0.021
0.823	0.514	-0.307	-0.668	0.565	0.103	-0.315	-0.151	0.068	0.457	0.025	-0.022
0.823	0.512	-0.31	-0.667	0.566	0.101	-0.308	-0.148	0.069	0.456	0.022	-0.025
0.822	0.509	-0.312	-0.665	0.567	0.099	-0.303	-0.148	0.07	0.454	0.02	-0.028
0.822	0.505	-0.317	-0.663	0.569	0.094	-0.305	-0.147	0.071	0.455	0.018	-0.028
0.819	0.501	-0.318	-0.66	0.569	0.091	-0.299	-0.143	0.074	0.457	0.018	-0.029
0.819	0.499	-0.32	-0.659	0.569	0.09	-0.296	-0.14	0.075	0.457	0.017	-0.029
0.82	0.498	-0.322	-0.659	0.571	0.088	-0.292	-0.137	0.079	0.457	0.015	-0.032
0.82	0.494	-0.326	-0.656	0.573	0.084	-0.289	-0.134	0.083	0.458	0.015	-0.032
0.821	0.494	-0.327	-0.657	0.573	0.084	-0.287	-0.131	0.085	0.459	0.015	-0.033
0.819	0.491	-0.328	-0.654	0.573	0.082	-0.282	-0.13	0.087	0.458	0.013	-0.035
0.822	0.49	-0.331	-0.656	0.576	0.08	-0.279	-0.129	0.088	0.457	0.011	-0.035
0.823	0.489	-0.334	-0.656	0.578	0.078	-0.275	-0.126	0.091	0.456	0.011	-0.038
0.818	0.483	-0.335	-0.65	0.576	0.074	-0.271	-0.124	0.092	0.457	0.008	-0.041
0.818	0.482	-0.336	-0.65	0.577	0.073	-0.268	-0.125	0.093	0.456	0.005	-0.043
0.818	0.479	-0.339	-0.648	0.579	0.07	-0.265	-0.126	0.095	0.453	0.001	-0.048
0.814	0.475	-0.339	-0.644	0.576	0.069	-0.263	-0.127	0.095	0.451	-0.003	-0.049
0.812	0.471	-0.342	-0.642	0.577	0.065	-0.258	-0.126	0.094	0.451	-0.005	-0.05
0.815	0.469	-0.347	-0.641	0.581	0.061	-0.256	-0.126	0.092	0.448	-0.009	-0.053
0.815	0.466	-0.348	-0.64	0.581	0.059	-0.253	-0.127	0.093	0.447	-0.012	-0.057
0.811	0.464	-0.348	-0.637	0.58	0.058	-0.248	-0.124	0.093	0.446	-0.011	-0.056
0.808	0.458	-0.35	-0.633	0.579	0.054	-0.245	-0.125	0.094	0.445	-0.014	-0.059
0.808	0.454	-0.354	-0.63	0.581	0.05	-0.243	-0.128	0.091	0.442	-0.018	-0.062
0.806	0.452	-0.354	-0.628	0.58	0.049	-0.24	-0.129	0.088	0.438	-0.022	-0.065
0.802	0.448	-0.354	-0.625	0.578	0.047	-0.236	-0.129	0.089	0.435	-0.025	-0.067
0.801	0.444	-0.357	-0.623	0.579	0.043	-0.235	-0.13	0.088	0.434	-0.029	-0.071
0.801	0.442	-0.36	-0.621	0.581	0.041	-0.233	-0.132	0.086	0.433	-0.032	-0.074
0.8	0.437	-0.363	-0.618	0.581	0.037	-0.231	-0.132	0.086	0.43	-0.035	-0.076
0.797	0.431	-0.366	-0.614	0.581	0.033	-0.228	-0.133	0.084	0.428	-0.037	-0.08
0.793	0.429	-0.364	-0.611	0.579	0.032	-0.224	-0.135	0.082	0.426	-0.04	-0.083
0.79	0.423	-0.366	-0.607	0.578	0.029	-0.222	-0.138	0.078	0.421	-0.044	-0.087
0.79	0.421	-0.369	-0.606	0.58	0.026	-0.221	-0.141	0.075	0.419	-0.048	-0.091
0.789	0.418	-0.371	-0.604	0.581	0.023	-0.217	-0.141	0.075	0.417	-0.051	-0.092
0.788	0.413	-0.375	-0.6	0.582	0.019	-0.219	-0.144	0.071	0.412	-0.056	-0.094
0.784	0.408	-0.376	-0.596	0.58	0.017	-0.218	-0.147	0.068	0.409	-0.059	-0.098
0.782	0.404	-0.378	-0.593	0.58	0.013	-0.21	-0.149	0.066	0.407	-0.062	-0.1
0.782	0.401	-0.382	-0.591	0.582	0.009	-0.206	-0.152	0.063	0.402	-0.067	-0.102
0.779	0.396	-0.384	-0.587	0.582	0.005	-0.203	-0.155	0.06	0.398	-0.072	-0.106
0.777	0.392	-0.385	-0.584	0.581	0.004	-0.203	-0.158	0.057	0.395	-0.076	-0.11
0.774	0.388	-0.387	-0.581	0.581	0.001	-0.201	-0.16	0.054	0.391	-0.079	-0.113
0.772	0.383	-0.39	-0.578	0.581	-0.004	-0.2	-0.163	0.051	0.388	-0.082	-0.115
0.77	0.378	-0.393	-0.574	0.581	-0.007	-0.199	-0.166	0.048	0.385	-0.085	-0.117
0.767	0.372	-0.396	-0.569	0.581	-0.011	-0.195	-0.168	0.044	0.382	-0.087	-0.12
0.767	0.367	-0.4	-0.567	0.583	-0.016	-0.198	-0.172	0.039	0.376	-0.093	-0.123
0.764	0.363	-0.402	-0.564	0.583	-0.019	-0.192	-0.174	0.035	0.372	-0.097	-0.126
0.764	0.361	-0.404	-0.562	0.584	-0.021	-0.193	-0.179	0.031	0.369	-0.1	-0.128
0.763	0.358	-0.406	-0.56	0.584	-0.024	-0.194	-0.182	0.026	0.365	-0.103	-0.13
0.759	0.354	-0.405	-0.557	0.582	-0.025	-0.189	-0.187	0.022	0.36	-0.108	-0.132
0.758	0.35	-0.407	-0.554	0.583	-0.029	-0.19	-0.191	0.018	0.356	-0.112	-0.134
0.757	0.346	-0.411	-0.551	0.584	-0.032	-0.186	-0.193	0.015	0.353	-0.115	-0.134
0.757	0.344	-0.413	-0.55	0.585	-0.035	-0.189	-0.198	0.011	0.349	-0.118	-0.138
0.753	0.341	-0.412	-0.547	0.583	-0.036	-0.191	-0.202	0.006	0.346	-0.119	-0.14
0.75	0.338	-0.412	-0.543	0.581	-0.037	-0.185	-0.205	0.003	0.341	-0.122	-0.142
0.751	0.336	-0.416	-0.543	0.584	-0.041	-0.182	-0.209	-0.001	0.339	-0.124	-0.145
0.751	0.333	-0.418	-0.541	0.585	-0.043	-0.183	-0.213	-0.005	0.335	-0.128	-0.147
0.75	0.331	-0.419	-0.539	0.584	-0.044	-0.186	-0.217	-0.009	0.329	-0.134	-0.15
0.748	0.329	-0.419	-0.538	0.583	-0.045	-0.181	-0.221	-0.011	0.327	-0.136	-0.152
0.747	0.324	-0.422	-0.535	0.584	-0.049	-0.179	-0.223	-0.015	0.325	-0.137	-0.152
0.747	0.324	-0.423	-0.535	0.585	-0.05	-0.185	-0.229	-0.019	0.323	-0.141	-0.153
0.744	0.322	-0.422	-0.533	0.583	-0.05	-0.185	-0.233	-0.022	0.32	-0.143	-0.157
0.743	0.32	-0.423	-0.531	0.583	-0.051	-0.177	-0.233	-0.022	0.318	-0.145	-0.158
0.743	0.321	-0.422	-0.531	0.583	-0.051	-0.177	-0.236	-0.025	0.317	-0.147	-0.158
0.74	0.318	-0.421	-0.528	0.58	-0.051	-0.179	-0.237	-0.029	0.315	-0.147	-0.159
0.739	0.316	-0.423	-0.527	0.581	-0.053	-0.178	-0.24	-0.033	0.308	-0.152	-0.161
0.741	0.314	-0.427	-0.527	0.584	-0.057	-0.178	-0.243	-0.037	0.304	-0.155	-0.164
0.739	0.311	-0.427	-0.524	0.583	-0.058	-0.177	-0.245	-0.039	0.303	-0.155	-0.166
0.737	0.308	-0.428	-0.522	0.582	-0.06	-0.182	-0.249	-0.043	0.301	-0.157	-0.165
0.736	0.306	-0.429	-0.521	0.583	-0.061	-0.179	-0.251	-0.046	0.298	-0.161	-0.168
0.738	0.307	-0.43	-0.522	0.584	-0.062	-0.177	-0.253	-0.048	0.297	-0.163	-0.168
0.741	0.306	-0.433	-0.523	0.587	-0.064	-0.181	-0.257	-0.051	0.296	-0.163	-0.168
0.734	0.303	-0.431	-0.518	0.583	-0.065	-0.179	-0.259	-0.053	0.292	-0.164	-0.17
0.736	0.302	-0.433	-0.518	0.585	-0.066	-0.179	-0.262	-0.056	0.291	-0.164	-0.17
0.739	0.3	-0.438	-0.519	0.588	-0.069	-0.179	-0.264	-0.059	0.29	-0.166	-0.172
0.735	0.298	-0.436	-0.516	0.585	-0.07	-0.179	-0.266	-0.061	0.288	-0.169	-0.173
0.735	0.297	-0.437	-0.515	0.585	-0.07	-0.18	-0.269	-0.062	0.288	-0.169	-0.173
0.736	0.297	-0.439	-0.516	0.587	-0.071	-0.181	-0.269	-0.064	0.287	-0.17	-0.174
0.734	0.295	-0.439	-0.514	0.586	-0.072	-0.18	-0.27	-0.065	0.285	-0.17	-0.175
0.732	0.293	-0.439	-0.512	0.585	-0.073	-0.179	-0.271	-0.065	0.285	-0.171	-0.175
0.734	0.293	-0.44	-0.513	0.587	-0.073	-0.179	-0.273	-0.068	0.284	-0.174	-0.176
0.734	0.292	-0.442	-0.512	0.588	-0.074	-0.178	-0.276	-0.07	0.28	-0.175	-0.178
0.74	0.294	-0.446	-0.517	0.593	-0.075	-0.182	-0.275	-0.07	0.279	-0.176	-0.178
0.737	0.294	-0.442	-0.515	0.589	-0.074	-0.18	-0.276	-0.071	0.28	-0.174	-0.178
0.73	0.289	-0.44	-0.509	0.585	-0.075	-0.178	-0.279	-0.073	0.277	-0.174	-0.178
0.733	0.288	-0.445	-0.51	0.589	-0.079	-0.184	-0.28	-0.076	0.278	-0.175	-0.18
0.731	0.289	-0.442	-0.509	0.586	-0.076	-0.179	-0.279	-0.075	0.278	-0.174	-0.181
0.732	0.287	-0.445	-0.509	0.588	-0.079	-0.178	-0.279	-0.075	0.277	-0.176	-0.18
0.734	0.283	-0.451	-0.508	0.592	-0.084	-0.18	-0.281	-0.077	0.275	-0.177	-0.18
0.733	0.284	-0.449	-0.508	0.591	-0.083	-0.179	-0.281	-0.077	0.276	-0.178	-0.179
0.73	0.282	-0.448	-0.506	0.589	-0.083	-0.177	-0.279	-0.077	0.276	-0.181	-0.179
0.73	0.279	-0.451	-0.504	0.59	-0.086	-0.177	-0.281	-0.079	0.274	-0.179	-0.18
0.729	0.28	-0.45	-0.504	0.589	-0.085	-0.18	-0.284	-0.08	0.274	-0.178	-0.181
0.728	0.28	-0.448	-0.503	0.588	-0.084	-0.18	-0.284	-0.081	0.272	-0.18	-0.183
0.729	0.277	-0.452	-0.503	0.59	-0.087	-0.181	-0.283	-0.082	0.27	-0.181	-0.183
0.727	0.276	-0.451	-0.501	0.589	-0.087	-0.179	-0.284	-0.083	0.27	-0.182	-0.183
0.725	0.273	-0.452	-0.498	0.588	-0.089	-0.181	-0.285	-0.083	0.269	-0.182	-0.185
0.723	0.271	-0.452	-0.497	0.588	-0.09	-0.179	-0.285	-0.084	0.269	-0.183	-0.184
0.725	0.274	-0.451	-0.499	0.588	-0.088	-0.178	-0.284	-0.085	0.267	-0.184	-0.185
0.724	0.275	-0.45	-0.499	0.587	-0.087	-0.179	-0.284	-0.085	0.268	-0.182	-0.186
0.725	0.276	-0.45	-0.5	0.587	-0.087	-0.177	-0.285	-0.086	0.267	-0.184	-0.187
0.729	0.276	-0.453	-0.502	0.591	-0.088	-0.179	-0.286	-0.087	0.264	-0.184	-0.188
0.728	0.276	-0.452	-0.501	0.59	-0.088	-0.181	-0.286	-0.086	0.265	-0.183	-0.185
0.728	0.276	-0.452	-0.501	0.59	-0.088	-0.181	-0.286	-0.089	0.264	-0.186	-0.185
0.729	0.274	-0.456	-0.501	0.592	-0.09	-0.179	-0.288	-0.091	0.263	-0.187	-0.185
0.73	0.276	-0.454	-0.502	0.591	-0.088	-0.181	-0.287	-0.088	0.264	-0.186	-0.185
0.729	0.279	-0.45	-0.503	0.589	-0.086	-0.18	-0.285	-0.087	0.264	-0.184	-0.184
0.727	0.273	-0.454	-0.499	0.59	-0.09	-0.177	-0.288	-0.089	0.262	-0.188	-0.186
0.726	0.273	-0.454	-0.499	0.59	-0.09	-0.177	-0.285	-0.089	0.262	-0.19	-0.186
0.727	0.271	-0.455	-0.498	0.591	-0.092	-0.178	-0.286	-0.088	0.263	-0.188	-0.184
0.727	0.269	-0.458	-0.497	0.592	-0.095	-0.176	-0.289	-0.09	0.261	-0.19	-0.185
0.727	0.272	-0.455	-0.498	0.591	-0.091	-0.174	-0.285	-0.088	0.261	-0.19	-0.186
0.726	0.27	-0.457	-0.497	0.591	-0.093	-0.174	-0.286	-0.089	0.261	-0.192	-0.187
0.725	0.268	-0.458	-0.495	0.591	-0.096	-0.176	-0.286	-0.091	0.26	-0.194	-0.188
0.723	0.267	-0.456	-0.494	0.589	-0.095	-0.18	-0.284	-0.091	0.259	-0.193	-0.186
0.724	0.266	-0.458	-0.494	0.591	-0.096	-0.178	-0.285	-0.091	0.259	-0.193	-0.187
0.727	0.266	-0.462	-0.496	0.595	-0.099	-0.177	-0.286	-0.09	0.259	-0.194	-0.186
0.727	0.266	-0.461	-0.496	0.594	-0.098	-0.172	-0.284	-0.09	0.26	-0.193	-0.184
0.727	0.269	-0.458	-0.497	0.592	-0.095	-0.171	-0.283	-0.089	0.26	-0.192	-0.185
0.729	0.269	-0.46	-0.499	0.594	-0.096	-0.174	-0.285	-0.09	0.258	-0.193	-0.185
0.73	0.268	-0.462	-0.499	0.596	-0.097	-0.175	-0.284	-0.092	0.256	-0.196	-0.185
0.73	0.268	-0.462	-0.498	0.596	-0.097	-0.174	-0.283	-0.089	0.256	-0.196	-0.185
0.727	0.268	-0.46	-0.497	0.593	-0.096	-0.171	-0.283	-0.089	0.257	-0.194	-0.184
0.726	0.267	-0.46	-0.496	0.593	-0.097	-0.172	-0.285	-0.093	0.254	-0.196	-0.184
0.727	0.266	-0.461	-0.496	0.594	-0.098	-0.175	-0.284	-0.093	0.254	-0.198	-0.185
0.726	0.267	-0.459	-0.496	0.593	-0.096	-0.173	-0.281	-0.092	0.254	-0.197	-0.186
0.726	0.267	-0.459	-0.495	0.592	-0.096	-0.171	-0.282	-0.094	0.252	-0.197	-0.187
0.723	0.264	-0.459	-0.493	0.591	-0.098	-0.171	-0.284	-0.092	0.252	-0.198	-0.188
0.723	0.264	-0.46	-0.493	0.591	-0.098	-0.169	-0.283	-0.092	0.253	-0.197	-0.189
0.723	0.266	-0.458	-0.494	0.591	-0.097	-0.17	-0.283	-0.092	0.252	-0.195	-0.19
0.725	0.266	-0.459	-0.494	0.592	-0.097	-0.169	-0.282	-0.092	0.252	-0.196	-0.188
0.726	0.266	-0.46	-0.495	0.593	-0.098	-0.166	-0.281	-0.091	0.253	-0.197	-0.187
0.727	0.267	-0.46	-0.496	0.593	-0.097	-0.169	-0.282	-0.091	0.252	-0.197	-0.188
0.725	0.264	-0.461	-0.494	0.593	-0.099	-0.171	-0.281	-0.093	0.252	-0.197	-0.187
0.722	0.262	-0.46	-0.491	0.591	-0.099	-0.167	-0.28	-0.091	0.253	-0.197	-0.187
0.724	0.264	-0.46	-0.493	0.592	-0.098	-0.168	-0.281	-0.093	0.252	-0.2	-0.188
0.729	0.268	-0.462	-0.498	0.595	-0.097	-0.168	-0.281	-0.091	0.251	-0.199	-0.188
0.73	0.268	-0.463	-0.498	0.596	-0.098	-0.168	-0.279	-0.088	0.253	-0.199	-0.186
