0.127	0.677	0.55	-0.402	-0.212	0.615	0.974	0.758	0.751	0.872	0.858	0.872
0.131	0.684	0.553	-0.407	-0.211	0.619	0.985	0.768	0.753	0.875	0.859	0.873
0.139	0.689	0.549	-0.413	-0.205	0.62	0.991	0.771	0.755	0.874	0.861	0.873
0.138	0.693	0.554	-0.414	-0.208	0.624	0.985	0.768	0.754	0.877	0.865	0.875
0.144	0.701	0.556	-0.422	-0.206	0.629	0.982	0.767	0.756	0.878	0.867	0.875
0.144	0.701	0.555	-0.422	-0.205	0.628	0.975	0.765	0.754	0.877	0.866	0.876
0.138	0.697	0.558	-0.416	-0.21	0.627	0.97	0.762	0.749	0.871	0.858	0.867
0.142	0.703	0.56	-0.422	-0.209	0.631	0.972	0.762	0.749	0.872	0.858	0.87
0.145	0.708	0.563	-0.426	-0.209	0.636	0.974	0.762	0.75	0.873	0.861	0.874
0.145	0.711	0.565	-0.427	-0.209	0.638	0.972	0.757	0.747	0.867	0.856	0.869
0.154	0.718	0.563	-0.436	-0.204	0.64	0.971	0.755	0.745	0.869	0.856	0.87
0.158	0.718	0.559	-0.438	-0.201	0.639	0.974	0.756	0.747	0.867	0.855	0.872
0.154	0.711	0.557	-0.432	-0.202	0.634	0.976	0.759	0.746	0.867	0.855	0.871
0.155	0.708	0.552	-0.431	-0.199	0.63	0.976	0.761	0.747	0.868	0.855	0.871
0.157	0.693	0.536	-0.424	-0.19	0.615	0.979	0.764	0.753	0.874	0.86	0.877
0.154	0.692	0.537	-0.423	-0.192	0.615	0.977	0.761	0.751	0.874	0.861	0.877
0.159	0.718	0.559	-0.438	-0.201	0.638	0.974	0.757	0.748	0.868	0.855	0.872
0.161	0.73	0.569	-0.445	-0.203	0.649	0.978	0.758	0.747	0.867	0.853	0.872
0.15	0.718	0.568	-0.433	-0.208	0.643	0.964	0.75	0.737	0.858	0.846	0.864
0.14	0.705	0.565	-0.422	-0.212	0.635	0.957	0.747	0.73	0.851	0.841	0.86
0.131	0.692	0.561	-0.41	-0.215	0.627	0.955	0.745	0.726	0.847	0.837	0.857
0.131	0.694	0.562	-0.412	-0.215	0.628	0.953	0.743	0.728	0.847	0.836	0.856
0.138	0.692	0.553	-0.414	-0.208	0.623	0.959	0.747	0.733	0.851	0.839	0.861
0.134	0.676	0.543	-0.405	-0.204	0.61	0.96	0.75	0.731	0.85	0.838	0.861
0.15	0.696	0.546	-0.423	-0.198	0.621	0.97	0.755	0.737	0.855	0.845	0.867
0.159	0.705	0.546	-0.431	-0.194	0.625	0.972	0.755	0.735	0.852	0.842	0.866
0.143	0.69	0.546	-0.416	-0.202	0.619	0.961	0.746	0.725	0.842	0.834	0.856
0.148	0.698	0.548	-0.423	-0.2	0.624	0.963	0.743	0.725	0.84	0.832	0.856
0.148	0.694	0.545	-0.42	-0.199	0.62	0.959	0.742	0.721	0.837	0.826	0.853
0.147	0.697	0.548	-0.421	-0.201	0.623	0.96	0.743	0.721	0.835	0.824	0.851
0.153	0.712	0.558	-0.432	-0.203	0.635	0.968	0.744	0.725	0.837	0.828	0.854
0.149	0.706	0.556	-0.427	-0.203	0.631	0.961	0.739	0.72	0.835	0.825	0.853
0.145	0.703	0.557	-0.423	-0.206	0.63	0.959	0.737	0.719	0.833	0.824	0.851
0.144	0.697	0.552	-0.42	-0.204	0.625	0.955	0.735	0.716	0.829	0.82	0.85
0.141	0.689	0.547	-0.415	-0.203	0.618	0.947	0.732	0.711	0.825	0.817	0.848
0.14	0.691	0.551	-0.415	-0.205	0.622	0.95	0.735	0.714	0.828	0.825	0.847
0.143	0.688	0.544	-0.415	-0.201	0.617	0.954	0.739	0.714	0.829	0.817	0.848
0.144	0.688	0.544	-0.416	-0.2	0.616	0.953	0.735	0.715	0.831	0.82	0.853
0.143	0.686	0.543	-0.415	-0.2	0.615	0.949	0.732	0.713	0.828	0.819	0.851
0.144	0.684	0.54	-0.413	-0.198	0.612	0.949	0.732	0.712	0.825	0.814	0.848
0.143	0.684	0.54	-0.413	-0.199	0.613	0.95	0.73	0.71	0.823	0.815	0.849
0.142	0.685	0.542	-0.413	-0.2	0.614	0.948	0.732	0.71	0.822	0.812	0.848
0.147	0.688	0.54	-0.417	-0.197	0.615	0.946	0.733	0.71	0.819	0.812	0.851
0.142	0.678	0.536	-0.41	-0.198	0.608	0.947	0.733	0.705	0.812	0.802	0.838
0.142	0.683	0.541	-0.412	-0.2	0.613	0.947	0.732	0.714	0.828	0.82	0.846
0.145	0.69	0.543	-0.417	-0.199	0.617	0.946	0.731	0.717	0.833	0.828	0.855
0.136	0.684	0.548	-0.41	-0.206	0.617	0.945	0.729	0.713	0.826	0.817	0.845
0.14	0.692	0.552	-0.415	-0.206	0.622	0.945	0.73	0.715	0.827	0.823	0.848
0.142	0.696	0.552	-0.418	-0.205	0.624	0.951	0.734	0.718	0.829	0.825	0.85
0.135	0.695	0.56	-0.414	-0.213	0.628	0.953	0.735	0.72	0.83	0.826	0.85
0.128	0.692	0.564	-0.409	-0.218	0.627	0.952	0.736	0.719	0.829	0.825	0.85
0.132	0.692	0.56	-0.411	-0.214	0.626	0.952	0.738	0.719	0.831	0.826	0.85
0.135	0.693	0.557	-0.413	-0.211	0.625	0.951	0.733	0.716	0.828	0.824	0.848
0.13	0.688	0.557	-0.408	-0.213	0.623	0.947	0.727	0.71	0.824	0.819	0.845
0.132	0.689	0.557	-0.41	-0.213	0.624	0.946	0.728	0.71	0.822	0.82	0.844
0.125	0.681	0.556	-0.403	-0.215	0.619	0.943	0.725	0.71	0.821	0.82	0.842
0.123	0.677	0.554	-0.401	-0.215	0.616	0.939	0.724	0.712	0.825	0.822	0.845
0.143	0.706	0.562	-0.424	-0.209	0.634	0.953	0.738	0.725	0.837	0.833	0.855
0.166	0.735	0.569	-0.45	-0.202	0.652	0.974	0.755	0.738	0.851	0.846	0.868
0.167	0.733	0.566	-0.45	-0.2	0.65	0.983	0.762	0.742	0.855	0.849	0.867
0.151	0.713	0.562	-0.432	-0.205	0.638	0.974	0.752	0.734	0.848	0.843	0.863
0.142	0.703	0.561	-0.422	-0.209	0.632	0.96	0.74	0.725	0.841	0.835	0.86
0.137	0.695	0.558	-0.415	-0.211	0.627	0.948	0.73	0.717	0.833	0.826	0.851
0.134	0.691	0.556	-0.412	-0.211	0.624	0.946	0.731	0.717	0.832	0.824	0.851
0.137	0.692	0.555	-0.413	-0.209	0.624	0.948	0.736	0.723	0.836	0.826	0.854
0.138	0.688	0.549	-0.412	-0.205	0.619	0.947	0.738	0.721	0.833	0.823	0.855
0.137	0.689	0.552	-0.412	-0.207	0.621	0.949	0.737	0.721	0.833	0.823	0.853
0.138	0.695	0.556	-0.416	-0.209	0.626	0.948	0.736	0.721	0.834	0.827	0.853
0.14	0.699	0.559	-0.418	-0.21	0.628	0.952	0.744	0.726	0.84	0.831	0.858
0.143	0.7	0.557	-0.421	-0.207	0.628	0.949	0.74	0.722	0.84	0.831	0.858
0.149	0.701	0.55	-0.424	-0.201	0.625	0.941	0.728	0.714	0.834	0.828	0.855
0.151	0.698	0.546	-0.424	-0.198	0.623	0.943	0.728	0.714	0.836	0.829	0.857
0.151	0.699	0.547	-0.424	-0.198	0.623	0.943	0.731	0.715	0.838	0.833	0.858
0.155	0.704	0.548	-0.429	-0.197	0.626	0.945	0.733	0.718	0.841	0.837	0.861
0.155	0.706	0.55	-0.43	-0.197	0.628	0.946	0.735	0.718	0.841	0.837	0.863
0.155	0.711	0.555	-0.432	-0.2	0.633	0.945	0.737	0.72	0.842	0.838	0.863
0.16	0.714	0.554	-0.437	-0.197	0.634	0.947	0.74	0.723	0.844	0.838	0.865
0.161	0.717	0.555	-0.439	-0.197	0.636	0.952	0.743	0.729	0.848	0.841	0.868
0.166	0.724	0.558	-0.445	-0.197	0.641	0.955	0.743	0.731	0.849	0.842	0.87
0.159	0.719	0.56	-0.438	-0.201	0.639	0.947	0.739	0.727	0.844	0.836	0.865
0.157	0.72	0.564	-0.438	-0.203	0.642	0.944	0.738	0.729	0.846	0.837	0.866
0.168	0.732	0.565	-0.45	-0.199	0.648	0.95	0.743	0.737	0.854	0.847	0.874
0.17	0.74	0.569	-0.455	-0.2	0.654	0.948	0.743	0.738	0.855	0.851	0.875
0.173	0.747	0.573	-0.46	-0.2	0.66	0.954	0.747	0.741	0.859	0.854	0.876
0.177	0.758	0.582	-0.468	-0.203	0.67	0.968	0.755	0.745	0.861	0.854	0.876
0.159	0.74	0.581	-0.45	-0.211	0.66	0.94	0.737	0.725	0.84	0.837	0.861
0.14	0.701	0.561	-0.42	-0.211	0.631	0.922	0.724	0.713	0.831	0.83	0.854
0.154	0.715	0.561	-0.434	-0.203	0.638	0.935	0.731	0.727	0.844	0.841	0.864
0.165	0.73	0.566	-0.447	-0.201	0.648	0.934	0.732	0.73	0.85	0.847	0.869
0.166	0.726	0.56	-0.446	-0.197	0.643	0.945	0.741	0.735	0.856	0.851	0.872
0.162	0.709	0.546	-0.435	-0.192	0.628	0.952	0.747	0.739	0.861	0.856	0.875
0.155	0.729	0.574	-0.442	-0.209	0.651	0.941	0.735	0.726	0.847	0.844	0.864
0.16	0.752	0.593	-0.456	-0.216	0.672	0.945	0.738	0.727	0.848	0.843	0.863
0.156	0.693	0.537	-0.424	-0.191	0.615	0.967	0.76	0.75	0.873	0.868	0.886
0.153	0.686	0.533	-0.419	-0.19	0.61	0.968	0.761	0.753	0.875	0.87	0.885
0.148	0.707	0.558	-0.427	-0.205	0.633	0.958	0.753	0.746	0.866	0.858	0.874
0.146	0.703	0.555	-0.424	-0.204	0.629	0.966	0.76	0.749	0.87	0.862	0.881
0.136	0.695	0.559	-0.415	-0.211	0.627	0.948	0.75	0.742	0.863	0.855	0.877
0.155	0.716	0.561	-0.435	-0.203	0.638	0.942	0.746	0.745	0.866	0.858	0.878
0.186	0.752	0.566	-0.469	-0.19	0.659	0.953	0.755	0.758	0.879	0.872	0.89
0.152	0.708	0.555	-0.43	-0.202	0.631	0.934	0.738	0.741	0.863	0.855	0.876
0.155	0.701	0.546	-0.428	-0.196	0.624	0.943	0.744	0.739	0.86	0.851	0.875
0.17	0.716	0.546	-0.443	-0.189	0.631	0.954	0.754	0.744	0.866	0.857	0.88
0.157	0.7	0.543	-0.428	-0.193	0.622	0.948	0.748	0.738	0.861	0.854	0.876
0.162	0.704	0.542	-0.432	-0.191	0.624	0.953	0.753	0.744	0.868	0.86	0.88
0.165	0.701	0.537	-0.432	-0.186	0.619	0.955	0.756	0.745	0.868	0.86	0.879
0.164	0.702	0.538	-0.433	-0.187	0.621	0.957	0.758	0.748	0.87	0.863	0.881
0.172	0.701	0.529	-0.436	-0.178	0.615	0.95	0.755	0.748	0.868	0.86	0.879
0.169	0.703	0.533	-0.435	-0.182	0.619	0.95	0.759	0.751	0.872	0.862	0.883
0.212	0.708	0.496	-0.46	-0.142	0.603	0.94	0.749	0.739	0.86	0.851	0.87
0.219	0.705	0.485	-0.462	-0.133	0.595	0.941	0.745	0.735	0.855	0.847	0.864
0.139	0.702	0.564	-0.42	-0.212	0.633	0.977	0.773	0.764	0.885	0.876	0.892
0.142	0.698	0.555	-0.42	-0.206	0.627	0.984	0.771	0.761	0.881	0.871	0.884
0.159	0.695	0.536	-0.426	-0.189	0.616	0.988	0.768	0.754	0.874	0.863	0.877
0.161	0.699	0.537	-0.429	-0.189	0.619	0.998	0.777	0.757	0.877	0.868	0.882
0.17	0.704	0.534	-0.436	-0.182	0.619	0.994	0.773	0.758	0.878	0.871	0.885
0.165	0.702	0.537	-0.433	-0.186	0.62	0.985	0.764	0.755	0.878	0.873	0.888
0.166	0.7	0.534	-0.432	-0.184	0.617	0.977	0.756	0.749	0.874	0.871	0.89
0.158	0.7	0.542	-0.428	-0.193	0.622	0.979	0.762	0.75	0.876	0.874	0.899
0.155	0.697	0.542	-0.425	-0.194	0.62	0.977	0.763	0.748	0.873	0.874	0.902
0.163	0.698	0.535	-0.43	-0.186	0.617	0.972	0.76	0.741	0.869	0.873	0.905
0.168	0.696	0.527	-0.431	-0.179	0.611	0.966	0.754	0.73	0.861	0.867	0.897
0.165	0.691	0.526	-0.428	-0.18	0.609	0.962	0.749	0.724	0.854	0.865	0.892
0.166	0.689	0.522	-0.427	-0.178	0.606	0.964	0.746	0.725	0.859	0.872	0.895
0.158	0.676	0.518	-0.417	-0.18	0.598	0.965	0.745	0.725	0.862	0.872	0.89
0.16	0.68	0.521	-0.419	-0.181	0.601	0.969	0.75	0.731	0.872	0.88	0.892
0.165	0.695	0.53	-0.429	-0.183	0.613	0.977	0.754	0.748	0.894	0.903	0.901
0.164	0.699	0.534	-0.431	-0.185	0.617	0.98	0.76	0.764	0.916	0.926	0.911
0.17	0.71	0.54	-0.44	-0.185	0.625	0.979	0.759	0.772	0.933	0.949	0.92
0.175	0.727	0.552	-0.451	-0.189	0.639	0.973	0.752	0.765	0.935	0.962	0.929
0.171	0.732	0.56	-0.451	-0.195	0.646	0.964	0.744	0.758	0.938	0.971	0.937
0.165	0.732	0.567	-0.448	-0.201	0.649	0.959	0.734	0.749	0.934	0.976	0.94
0.163	0.729	0.567	-0.446	-0.203	0.648	0.955	0.728	0.733	0.923	0.976	0.941
0.159	0.724	0.565	-0.441	-0.203	0.644	0.949	0.719	0.715	0.909	0.971	0.941
0.153	0.719	0.565	-0.436	-0.205	0.642	0.937	0.703	0.681	0.878	0.951	0.933
0.147	0.71	0.562	-0.428	-0.208	0.636	0.928	0.692	0.66	0.857	0.941	0.933
0.157	0.711	0.554	-0.433	-0.199	0.633	0.923	0.686	0.649	0.847	0.942	0.946
0.164	0.704	0.54	-0.434	-0.188	0.622	0.918	0.684	0.629	0.827	0.936	0.953
0.168	0.692	0.523	-0.429	-0.177	0.608	0.905	0.669	0.587	0.783	0.912	0.954
0.172	0.688	0.516	-0.429	-0.172	0.603	0.877	0.637	0.508	0.705	0.865	0.948
0.169	0.679	0.511	-0.424	-0.171	0.596	0.849	0.601	0.42	0.616	0.809	0.94
0.172	0.672	0.5	-0.422	-0.164	0.587	0.823	0.569	0.345	0.536	0.765	0.949
0.186	0.676	0.491	-0.431	-0.152	0.584	0.809	0.549	0.283	0.465	0.723	0.961
0.213	0.7	0.487	-0.456	-0.137	0.594	0.791	0.519	0.207	0.385	0.68	0.977
0.217	0.703	0.485	-0.46	-0.134	0.594	0.741	0.457	0.086	0.271	0.615	0.985
0.215	0.692	0.476	-0.454	-0.13	0.584	0.682	0.381	-0.067	0.118	0.511	0.972
0.215	0.701	0.485	-0.458	-0.135	0.593	0.613	0.292	-0.243	-0.064	0.387	0.954
0.224	0.712	0.488	-0.467	-0.133	0.6	0.537	0.192	-0.443	-0.273	0.237	0.933
0.233	0.724	0.491	-0.477	-0.129	0.608	0.472	0.1	-0.625	-0.462	0.1	0.903
0.239	0.74	0.5	-0.489	-0.131	0.62	0.389	-0.004	-0.804	-0.637	-0.024	0.888
0.262	0.753	0.491	-0.507	-0.115	0.623	0.299	-0.113	-0.979	-0.804	-0.141	0.887
0.27	0.75	0.48	-0.509	-0.105	0.615	0.232	-0.199	-1.125	-0.949	-0.244	0.867
0.284	0.742	0.457	-0.512	-0.086	0.6	0.178	-0.269	-1.267	-1.097	-0.355	0.852
0.291	0.727	0.435	-0.509	-0.071	0.581	0.117	-0.345	-1.415	-1.26	-0.487	0.83
0.293	0.714	0.421	-0.503	-0.064	0.568	0.051	-0.429	-1.562	-1.422	-0.623	0.802
0.306	0.731	0.425	-0.518	-0.059	0.579	-0.007	-0.507	-1.698	-1.562	-0.731	0.792
0.324	0.758	0.434	-0.54	-0.055	0.597	-0.058	-0.581	-1.815	-1.681	-0.822	0.788
0.348	0.794	0.447	-0.571	-0.05	0.621	-0.117	-0.66	-1.915	-1.774	-0.884	0.806
0.369	0.843	0.473	-0.606	-0.052	0.658	-0.194	-0.75	-1.994	-1.833	-0.911	0.846
0.404	0.895	0.492	-0.649	-0.044	0.694	-0.261	-0.824	-2.055	-1.878	-0.933	0.876
0.431	0.944	0.513	-0.687	-0.041	0.729	-0.307	-0.877	-2.094	-1.904	-0.947	0.896
0.459	0.977	0.518	-0.718	-0.03	0.748	-0.351	-0.924	-2.127	-1.923	-0.948	0.94
0.502	0.991	0.488	-0.746	0.007	0.74	-0.391	-0.954	-2.152	-1.94	-0.947	1
0.521	0.963	0.443	-0.742	0.039	0.703	-0.429	-0.979	-2.174	-1.969	-0.973	1.031
0.546	0.975	0.429	-0.76	0.059	0.702	-0.471	-1.028	-2.208	-1.991	-0.984	1.089
0.619	1.054	0.435	-0.836	0.091	0.745	-0.497	-1.06	-2.205	-1.964	-0.934	1.189
0.67	1.086	0.416	-0.878	0.127	0.751	-0.526	-1.081	-2.202	-1.958	-0.918	1.248
0.701	1.091	0.391	-0.896	0.155	0.741	-0.559	-1.109	-2.213	-1.967	-0.925	1.296
0.745	1.113	0.367	-0.928	0.189	0.74	-0.588	-1.129	-2.2	-1.948	-0.909	1.359
0.795	1.155	0.36	-0.975	0.217	0.758	-0.618	-1.153	-2.174	-1.913	-0.885	1.405
0.832	1.211	0.379	-1.021	0.227	0.795	-0.636	-1.161	-2.137	-1.871	-0.868	1.42
0.851	1.246	0.395	-1.048	0.228	0.82	-0.649	-1.167	-2.119	-1.86	-0.893	1.394
0.878	1.268	0.389	-1.073	0.245	0.829	-0.657	-1.167	-2.102	-1.859	-0.934	1.357
0.893	1.272	0.38	-1.083	0.257	0.827	-0.651	-1.153	-2.07	-1.846	-0.975	1.304
0.929	1.258	0.329	-1.094	0.3	0.794	-0.633	-1.129	-2.022	-1.821	-1.016	1.22
0.935	1.238	0.302	-1.087	0.317	0.77	-0.606	-1.089	-1.956	-1.778	-1.042	1.143
0.892	1.236	0.343	-1.064	0.275	0.789	-0.564	-1.032	-1.872	-1.715	-1.045	1.097
0.9	1.212	0.311	-1.056	0.295	0.761	-0.531	-0.978	-1.792	-1.664	-1.063	1.022
0.912	1.144	0.232	-1.028	0.341	0.688	-0.47	-0.902	-1.71	-1.627	-1.12	0.897
0.902	1.02	0.118	-0.961	0.392	0.569	-0.395	-0.801	-1.595	-1.558	-1.138	0.806
0.873	0.868	-0.005	-0.87	0.439	0.431	-0.334	-0.706	-1.468	-1.46	-1.101	0.737
0.862	0.751	-0.111	-0.806	0.486	0.321	-0.219	-0.576	-1.31	-1.327	-1.035	0.677
0.859	0.613	-0.246	-0.736	0.552	0.183	-0.117	-0.449	-1.169	-1.217	-0.985	0.618
0.827	0.475	-0.351	-0.651	0.589	0.062	-0.036	-0.35	-1.066	-1.137	-0.955	0.539
0.812	0.333	-0.48	-0.572	0.646	-0.073	0.054	-0.246	-0.952	-1.04	-0.896	0.512
0.814	0.199	-0.615	-0.505	0.714	-0.207	0.132	-0.15	-0.836	-0.943	-0.83	0.511
0.81	0.102	-0.707	-0.456	0.758	-0.302	0.195	-0.073	-0.741	-0.861	-0.773	0.5
0.8	0.004	-0.796	-0.402	0.798	-0.396	0.252	-0.004	-0.659	-0.791	-0.727	0.487
0.788	-0.073	-0.863	-0.357	0.826	-0.468	0.307	0.061	-0.579	-0.72	-0.681	0.471
0.785	-0.127	-0.912	-0.329	0.849	-0.519	0.348	0.113	-0.506	-0.648	-0.626	0.473
0.781	-0.169	-0.951	-0.306	0.866	-0.559	0.388	0.155	-0.441	-0.584	-0.575	0.482
0.767	-0.194	-0.962	-0.286	0.864	-0.578	0.422	0.194	-0.38	-0.522	-0.519	0.493
0.748	-0.207	-0.955	-0.27	0.851	-0.581	0.456	0.229	-0.323	-0.459	-0.469	0.501
0.73	-0.22	-0.95	-0.255	0.84	-0.584	0.483	0.256	-0.284	-0.419	-0.435	0.496
0.711	-0.22	-0.93	-0.245	0.821	-0.575	0.515	0.292	-0.233	-0.364	-0.39	0.502
0.682	-0.234	-0.916	-0.224	0.799	-0.575	0.542	0.324	-0.18	-0.308	-0.346	0.503
0.665	-0.242	-0.908	-0.211	0.787	-0.575	0.571	0.357	-0.13	-0.256	-0.298	0.506
0.65	-0.236	-0.887	-0.206	0.768	-0.561	0.619	0.407	-0.061	-0.179	-0.231	0.531
0.628	-0.194	-0.823	-0.217	0.726	-0.508	0.644	0.438	-0.004	-0.112	-0.164	0.551
0.608	-0.136	-0.743	-0.235	0.675	-0.439	0.659	0.457	0.037	-0.061	-0.116	0.556
0.589	-0.104	-0.693	-0.242	0.64	-0.398	0.679	0.476	0.077	-0.011	-0.069	0.565
0.566	-0.048	-0.614	-0.259	0.59	-0.331	0.704	0.497	0.129	0.055	-0.003	0.578
0.532	0.025	-0.507	-0.279	0.519	-0.24	0.728	0.519	0.187	0.131	0.073	0.593
0.499	0.121	-0.378	-0.31	0.439	-0.128	0.757	0.544	0.262	0.229	0.175	0.633
0.458	0.212	-0.246	-0.335	0.352	-0.017	0.786	0.569	0.333	0.323	0.272	0.668
0.402	0.281	-0.121	-0.341	0.262	0.08	0.804	0.584	0.392	0.404	0.356	0.688
0.337	0.341	0.005	-0.339	0.166	0.173	0.826	0.605	0.451	0.48	0.436	0.7
0.291	0.381	0.089	-0.336	0.101	0.235	0.856	0.635	0.503	0.546	0.499	0.704
0.271	0.411	0.141	-0.341	0.065	0.277	0.887	0.666	0.549	0.596	0.546	0.711
0.268	0.457	0.189	-0.362	0.04	0.323	0.921	0.697	0.594	0.645	0.591	0.726
0.276	0.513	0.236	-0.394	0.019	0.375	0.958	0.729	0.64	0.702	0.644	0.749
0.248	0.519	0.272	-0.384	-0.012	0.396	0.97	0.745	0.665	0.731	0.673	0.751
0.214	0.515	0.301	-0.365	-0.043	0.408	0.971	0.748	0.677	0.746	0.69	0.743
0.202	0.529	0.328	-0.365	-0.063	0.429	0.977	0.757	0.695	0.767	0.711	0.749
0.19	0.543	0.353	-0.366	-0.082	0.449	0.985	0.764	0.715	0.79	0.733	0.757
0.182	0.56	0.378	-0.371	-0.098	0.469	0.992	0.773	0.735	0.813	0.754	0.768
0.177	0.567	0.39	-0.372	-0.106	0.478	1.001	0.785	0.751	0.835	0.775	0.779
0.172	0.577	0.405	-0.374	-0.116	0.491	1.011	0.795	0.766	0.852	0.793	0.787
0.17	0.592	0.422	-0.381	-0.127	0.507	1.012	0.801	0.777	0.865	0.806	0.792
0.166	0.608	0.442	-0.387	-0.138	0.525	1.015	0.807	0.79	0.88	0.824	0.798
0.162	0.62	0.459	-0.391	-0.148	0.539	1.025	0.817	0.805	0.898	0.84	0.807
0.159	0.631	0.472	-0.395	-0.157	0.552	1.033	0.826	0.819	0.913	0.854	0.812
0.16	0.645	0.485	-0.402	-0.163	0.566	1.039	0.832	0.83	0.924	0.867	0.818
0.161	0.658	0.498	-0.409	-0.169	0.579	1.042	0.836	0.839	0.938	0.876	0.823
0.152	0.656	0.504	-0.404	-0.175	0.581	1.047	0.84	0.849	0.947	0.887	0.829
0.151	0.64	0.489	-0.396	-0.17	0.566	1.055	0.85	0.862	0.959	0.898	0.836
0.15	0.641	0.491	-0.396	-0.171	0.567	1.054	0.85	0.866	0.963	0.904	0.833
0.145	0.649	0.504	-0.397	-0.179	0.577	1.049	0.844	0.865	0.963	0.905	0.83
0.143	0.654	0.511	-0.399	-0.184	0.583	1.05	0.845	0.869	0.97	0.909	0.831
0.139	0.655	0.517	-0.397	-0.189	0.586	1.052	0.846	0.871	0.973	0.912	0.828
0.138	0.657	0.52	-0.398	-0.191	0.589	1.056	0.851	0.878	0.98	0.917	0.829
0.141	0.667	0.526	-0.405	-0.192	0.597	1.06	0.858	0.885	0.987	0.924	0.833
0.142	0.673	0.531	-0.407	-0.195	0.602	1.064	0.86	0.89	0.993	0.928	0.834
0.139	0.678	0.54	-0.408	-0.201	0.61	1.069	0.863	0.894	0.997	0.93	0.834
0.134	0.672	0.539	-0.403	-0.203	0.606	1.069	0.866	0.892	0.996	0.929	0.829
0.124	0.663	0.539	-0.394	-0.207	0.602	1.067	0.866	0.893	0.997	0.931	0.827
0.13	0.669	0.539	-0.4	-0.205	0.605	1.075	0.873	0.903	1.006	0.94	0.832
0.133	0.672	0.54	-0.403	-0.204	0.607	1.079	0.876	0.909	1.014	0.946	0.836
0.125	0.672	0.546	-0.399	-0.21	0.61	1.075	0.875	0.909	1.017	0.947	0.835
0.128	0.675	0.548	-0.402	-0.21	0.613	1.077	0.877	0.913	1.021	0.95	0.837
0.126	0.679	0.553	-0.402	-0.214	0.617	1.081	0.879	0.918	1.024	0.954	0.836
0.123	0.683	0.56	-0.404	-0.218	0.622	1.087	0.882	0.921	1.03	0.959	0.838
0.121	0.687	0.566	-0.404	-0.223	0.627	1.089	0.883	0.926	1.034	0.96	0.837
0.117	0.686	0.569	-0.402	-0.226	0.628	1.083	0.88	0.93	1.041	0.968	0.841
0.118	0.686	0.569	-0.402	-0.226	0.627	1.07	0.88	0.929	1.034	0.962	0.84
0.12	0.693	0.573	-0.406	-0.226	0.633	1.065	0.879	0.932	1.038	0.959	0.83
0.115	0.698	0.583	-0.406	-0.234	0.64	1.054	0.867	0.93	1.05	0.974	0.837
0.132	0.716	0.585	-0.424	-0.226	0.65	1.052	0.872	0.932	1.049	0.974	0.84
0.143	0.727	0.584	-0.434	-0.22	0.655	1.073	0.885	0.94	1.053	0.976	0.841
0.131	0.719	0.588	-0.424	-0.228	0.653	1.077	0.883	0.938	1.05	0.976	0.838
0.129	0.72	0.591	-0.423	-0.231	0.655	1.081	0.886	0.94	1.052	0.975	0.836
0.117	0.705	0.588	-0.411	-0.235	0.647	1.095	0.89	0.935	1.049	0.97	0.832
0.118	0.704	0.586	-0.41	-0.234	0.645	1.107	0.892	0.936	1.047	0.97	0.83
0.11	0.7	0.591	-0.405	-0.24	0.645	1.105	0.889	0.935	1.046	0.969	0.827
0.1	0.691	0.592	-0.395	-0.246	0.641	1.095	0.884	0.931	1.045	0.967	0.822
0.099	0.695	0.596	-0.397	-0.248	0.645	1.097	0.885	0.936	1.051	0.971	0.824
0.11	0.707	0.597	-0.408	-0.243	0.651	1.113	0.897	0.946	1.062	0.979	0.831
0.117	0.708	0.592	-0.412	-0.237	0.65	1.119	0.904	0.952	1.067	0.987	0.835
0.102	0.691	0.588	-0.396	-0.242	0.639	1.11	0.901	0.948	1.062	0.98	0.826
0.107	0.691	0.584	-0.399	-0.238	0.637	1.113	0.903	0.95	1.064	0.982	0.828
0.11	0.692	0.582	-0.401	-0.236	0.637	1.118	0.907	0.956	1.069	0.986	0.829
0.111	0.692	0.582	-0.401	-0.235	0.637	1.123	0.913	0.963	1.075	0.991	0.832
0.111	0.693	0.582	-0.402	-0.235	0.637	1.123	0.912	0.965	1.077	0.993	0.833
0.108	0.693	0.585	-0.401	-0.238	0.639	1.118	0.908	0.964	1.074	0.99	0.826
0.112	0.698	0.586	-0.405	-0.237	0.642	1.121	0.911	0.968	1.079	0.994	0.83
0.114	0.697	0.583	-0.406	-0.234	0.64	1.123	0.913	0.972	1.083	0.996	0.833
0.109	0.696	0.587	-0.402	-0.239	0.641	1.125	0.917	0.973	1.085	0.996	0.829
0.111	0.697	0.586	-0.404	-0.238	0.641	1.123	0.917	0.972	1.084	0.994	0.827
0.113	0.698	0.585	-0.405	-0.236	0.641	1.121	0.914	0.969	1.079	0.99	0.828
0.11	0.696	0.586	-0.402	-0.238	0.641	1.125	0.921	0.977	1.091	1	0.828
0.108	0.692	0.584	-0.4	-0.238	0.638	1.127	0.924	0.982	1.096	1.006	0.828
0.108	0.69	0.583	-0.399	-0.237	0.636	1.13	0.927	0.985	1.096	1.004	0.829
0.113	0.697	0.584	-0.404	-0.235	0.64	1.137	0.936	0.993	1.103	1.011	0.834
0.109	0.698	0.589	-0.403	-0.239	0.643	1.133	0.931	0.993	1.101	1.01	0.832
0.108	0.696	0.588	-0.402	-0.24	0.642	1.129	0.926	0.991	1.102	1.008	0.829
0.103	0.691	0.588	-0.397	-0.242	0.639	1.128	0.925	0.992	1.101	1.009	0.827
0.1	0.689	0.589	-0.394	-0.245	0.639	1.135	0.932	0.999	1.105	1.012	0.829
0.104	0.691	0.587	-0.397	-0.241	0.639	1.141	0.94	1.006	1.112	1.015	0.833
0.095	0.68	0.586	-0.388	-0.245	0.633	1.137	0.935	1	1.107	1.01	0.827
0.104	0.692	0.587	-0.398	-0.241	0.639	1.145	0.942	1.006	1.113	1.016	0.829
0.114	0.701	0.587	-0.407	-0.236	0.644	1.152	0.946	1.01	1.117	1.019	0.829
0.11	0.691	0.581	-0.4	-0.235	0.636	1.153	0.947	1.01	1.117	1.016	0.825
0.113	0.695	0.582	-0.404	-0.234	0.638	1.158	0.951	1.016	1.12	1.02	0.827
0.108	0.694	0.585	-0.401	-0.238	0.639	1.151	0.943	1.014	1.12	1.02	0.823
0.112	0.698	0.587	-0.404	-0.237	0.642	1.159	0.949	1.018	1.127	1.025	0.824
0.11	0.693	0.584	-0.401	-0.237	0.638	1.165	0.954	1.02	1.129	1.025	0.822
0.093	0.671	0.579	-0.382	-0.243	0.625	1.151	0.945	1.013	1.12	1.017	0.812
0.09	0.672	0.582	-0.381	-0.246	0.627	1.151	0.948	1.017	1.124	1.02	0.811
0.092	0.678	0.587	-0.385	-0.247	0.632	1.161	0.956	1.026	1.13	1.024	0.815
0.087	0.677	0.59	-0.382	-0.252	0.634	1.164	0.959	1.03	1.134	1.026	0.815
0.09	0.679	0.589	-0.385	-0.249	0.634	1.165	0.963	1.036	1.138	1.03	0.815
0.096	0.683	0.588	-0.389	-0.246	0.635	1.169	0.969	1.042	1.144	1.037	0.818
0.085	0.676	0.592	-0.38	-0.254	0.634	1.173	0.97	1.046	1.145	1.036	0.814
0.084	0.674	0.591	-0.379	-0.254	0.632	1.175	0.97	1.048	1.147	1.038	0.812
0.086	0.673	0.588	-0.379	-0.252	0.631	1.179	0.973	1.052	1.151	1.04	0.81
0.075	0.664	0.589	-0.369	-0.257	0.626	1.182	0.976	1.054	1.152	1.039	0.807
0.077	0.668	0.591	-0.373	-0.257	0.63	1.186	0.982	1.062	1.161	1.049	0.814
0.083	0.676	0.594	-0.38	-0.255	0.635	1.19	0.986	1.069	1.169	1.056	0.816
0.083	0.674	0.592	-0.379	-0.255	0.633	1.19	0.987	1.071	1.173	1.058	0.814
0.081	0.68	0.599	-0.38	-0.259	0.639	1.194	0.992	1.083	1.181	1.067	0.819
0.072	0.687	0.615	-0.38	-0.272	0.651	1.203	0.999	1.094	1.192	1.076	0.827
0.076	0.688	0.612	-0.382	-0.268	0.65	1.205	0.999	1.095	1.196	1.077	0.825
0.088	0.69	0.602	-0.389	-0.257	0.646	1.206	1.001	1.098	1.196	1.079	0.82
0.098	0.676	0.579	-0.387	-0.24	0.627	1.2	1	1.095	1.19	1.071	0.806
0.1	0.664	0.564	-0.382	-0.232	0.614	1.198	0.998	1.092	1.185	1.065	0.796
0.102	0.668	0.566	-0.385	-0.232	0.618	1.21	1.006	1.1	1.193	1.069	0.797
0.102	0.675	0.573	-0.389	-0.235	0.625	1.22	1.014	1.107	1.202	1.079	0.795
0.071	0.681	0.611	-0.377	-0.27	0.646	1.237	1.028	1.124	1.214	1.089	0.806
0.051	0.678	0.627	-0.365	-0.288	0.653	1.245	1.036	1.131	1.222	1.093	0.815
0.044	0.679	0.635	-0.361	-0.295	0.658	1.253	1.044	1.141	1.229	1.1	0.816
0.129	0.679	0.55	-0.404	-0.21	0.615	1.234	1.024	1.121	1.206	1.075	0.785
0.115	0.671	0.556	-0.393	-0.221	0.614	1.238	1.028	1.126	1.212	1.081	0.787
-0.015	0.66	0.675	-0.323	-0.344	0.668	1.274	1.065	1.167	1.254	1.117	0.822
0.011	0.656	0.646	-0.333	-0.318	0.651	1.267	1.056	1.161	1.248	1.109	0.808
0.037	0.658	0.621	-0.347	-0.292	0.639	1.26	1.049	1.153	1.242	1.101	0.795
0.041	0.665	0.625	-0.352	-0.292	0.645	1.265	1.056	1.165	1.252	1.105	0.796
0.105	0.702	0.597	-0.403	-0.246	0.649	1.278	1.063	1.173	1.26	1.111	0.798
0.164	0.704	0.54	-0.433	-0.189	0.622	1.272	1.052	1.164	1.251	1.097	0.781
0.069	0.68	0.612	-0.374	-0.271	0.646	1.294	1.075	1.188	1.273	1.117	0.798
-0.005	0.684	0.689	-0.339	-0.346	0.686	1.323	1.107	1.218	1.304	1.149	0.823
0.04	0.683	0.643	-0.361	-0.301	0.663	1.308	1.094	1.209	1.294	1.137	0.805
0.043	0.678	0.635	-0.36	-0.296	0.657	1.306	1.091	1.206	1.293	1.135	0.799
0.035	0.669	0.634	-0.352	-0.299	0.651	1.3	1.085	1.201	1.289	1.127	0.791
0.03	0.666	0.636	-0.348	-0.303	0.651	1.298	1.081	1.199	1.288	1.123	0.784
0.035	0.666	0.63	-0.35	-0.297	0.648	1.296	1.078	1.202	1.288	1.123	0.782
0.04	0.668	0.629	-0.353	-0.295	0.649	1.297	1.077	1.204	1.29	1.123	0.776
0.035	0.675	0.64	-0.355	-0.302	0.658	1.302	1.083	1.208	1.294	1.125	0.775
0.037	0.676	0.639	-0.356	-0.301	0.658	1.305	1.087	1.214	1.298	1.127	0.771
0.043	0.679	0.637	-0.36	-0.297	0.659	1.306	1.087	1.221	1.304	1.131	0.776
0.044	0.68	0.636	-0.362	-0.296	0.658	1.31	1.096	1.223	1.298	1.122	0.768
0.042	0.684	0.642	-0.362	-0.3	0.663	1.312	1.096	1.23	1.311	1.129	0.762
0.041	0.69	0.649	-0.364	-0.304	0.669	1.307	1.089	1.235	1.325	1.145	0.772
0.04	0.692	0.652	-0.365	-0.306	0.672	1.31	1.095	1.24	1.324	1.142	0.766
0.035	0.691	0.656	-0.362	-0.31	0.674	1.306	1.091	1.242	1.327	1.142	0.761
0.034	0.692	0.658	-0.362	-0.312	0.675	1.302	1.091	1.246	1.331	1.145	0.76
0.034	0.696	0.661	-0.364	-0.314	0.678	1.307	1.097	1.257	1.342	1.152	0.76
0.035	0.7	0.665	-0.367	-0.315	0.683	1.31	1.101	1.264	1.35	1.159	0.763
0.032	0.698	0.667	-0.364	-0.318	0.682	1.312	1.104	1.271	1.355	1.161	0.76
0.022	0.684	0.661	-0.353	-0.32	0.673	1.308	1.103	1.271	1.354	1.159	0.754
0.028	0.69	0.662	-0.359	-0.317	0.676	1.314	1.109	1.279	1.361	1.165	0.756
0.025	0.691	0.665	-0.357	-0.32	0.678	1.31	1.109	1.284	1.369	1.169	0.754
0.022	0.692	0.67	-0.356	-0.324	0.681	1.31	1.111	1.289	1.375	1.175	0.754
0.029	0.705	0.675	-0.366	-0.323	0.691	1.319	1.119	1.303	1.387	1.185	0.757
0.019	0.69	0.67	-0.354	-0.325	0.68	1.306	1.115	1.302	1.387	1.182	0.751
0.013	0.684	0.672	-0.348	-0.33	0.678	1.302	1.112	1.306	1.391	1.183	0.747
0.018	0.694	0.675	-0.355	-0.329	0.684	1.302	1.119	1.317	1.403	1.19	0.75
0.018	0.704	0.685	-0.361	-0.333	0.695	1.3	1.123	1.327	1.413	1.198	0.751
0.029	0.725	0.696	-0.377	-0.333	0.711	1.312	1.132	1.341	1.427	1.21	0.755
0.04	0.738	0.698	-0.389	-0.329	0.718	1.325	1.143	1.353	1.442	1.22	0.759
0.027	0.727	0.7	-0.377	-0.336	0.714	1.321	1.141	1.355	1.444	1.22	0.755
0.013	0.716	0.703	-0.364	-0.344	0.71	1.323	1.142	1.358	1.448	1.22	0.751
0.02	0.728	0.708	-0.373	-0.343	0.718	1.337	1.151	1.371	1.458	1.229	0.756
0.024	0.739	0.715	-0.381	-0.345	0.727	1.355	1.16	1.381	1.466	1.236	0.757
0.013	0.731	0.718	-0.371	-0.352	0.725	1.365	1.166	1.384	1.47	1.237	0.752
-0.003	0.723	0.726	-0.36	-0.363	0.725	1.362	1.165	1.383	1.472	1.238	0.749
-0.009	0.724	0.733	-0.357	-0.37	0.729	1.361	1.165	1.389	1.478	1.24	0.748
0.001	0.735	0.735	-0.367	-0.366	0.735	1.36	1.167	1.399	1.488	1.249	0.752
0.001	0.746	0.746	-0.373	-0.372	0.746	1.359	1.169	1.406	1.495	1.252	0.749
-0.002	0.747	0.748	-0.372	-0.374	0.747	1.359	1.177	1.415	1.504	1.26	0.751
-0.005	0.742	0.747	-0.368	-0.376	0.745	1.357	1.175	1.414	1.502	1.252	0.739
-0.016	0.736	0.752	-0.359	-0.384	0.745	1.357	1.175	1.417	1.505	1.248	0.732
-0.02	0.73	0.75	-0.355	-0.384	0.741	1.363	1.181	1.428	1.518	1.27	0.75
-0.018	0.735	0.752	-0.358	-0.384	0.743	1.365	1.184	1.434	1.524	1.273	0.746
-0.011	0.745	0.755	-0.366	-0.383	0.75	1.369	1.19	1.442	1.533	1.278	0.748
-0.01	0.743	0.753	-0.366	-0.381	0.748	1.377	1.198	1.449	1.54	1.282	0.748
-0.023	0.724	0.747	-0.35	-0.385	0.736	1.369	1.194	1.445	1.534	1.274	0.739
-0.032	0.713	0.745	-0.341	-0.388	0.729	1.359	1.187	1.444	1.533	1.274	0.736
-0.028	0.708	0.736	-0.34	-0.381	0.722	1.369	1.195	1.458	1.548	1.288	0.746
-0.021	0.72	0.741	-0.349	-0.38	0.73	1.371	1.2	1.468	1.558	1.298	0.752
-0.018	0.746	0.764	-0.363	-0.391	0.755	1.365	1.197	1.468	1.556	1.296	0.743
-0.015	0.763	0.779	-0.374	-0.397	0.771	1.367	1.202	1.474	1.564	1.304	0.745
-0.016	0.769	0.785	-0.377	-0.401	0.778	1.369	1.203	1.477	1.569	1.308	0.746
-0.033	0.732	0.764	-0.349	-0.398	0.749	1.374	1.207	1.48	1.57	1.31	0.746
-0.034	0.703	0.737	-0.334	-0.385	0.72	1.384	1.218	1.49	1.579	1.319	0.754
-0.028	0.715	0.742	-0.344	-0.385	0.729	1.384	1.22	1.494	1.585	1.325	0.755
-0.018	0.735	0.753	-0.358	-0.385	0.744	1.387	1.222	1.498	1.593	1.332	0.759
-0.009	0.747	0.755	-0.369	-0.382	0.751	1.392	1.226	1.504	1.599	1.339	0.767
-0.017	0.744	0.76	-0.363	-0.388	0.752	1.379	1.215	1.498	1.595	1.335	0.762
-0.021	0.742	0.762	-0.36	-0.391	0.752	1.372	1.21	1.496	1.595	1.335	0.762
-0.018	0.747	0.765	-0.364	-0.392	0.756	1.379	1.216	1.503	1.603	1.344	0.77
-0.013	0.754	0.767	-0.37	-0.39	0.761	1.38	1.216	1.504	1.608	1.349	0.773
-0.005	0.761	0.767	-0.378	-0.386	0.764	1.381	1.217	1.508	1.613	1.353	0.777
-0.004	0.765	0.769	-0.38	-0.387	0.767	1.377	1.213	1.506	1.612	1.355	0.78
-0.004	0.766	0.77	-0.381	-0.387	0.768	1.372	1.21	1.504	1.61	1.357	0.781
-0.003	0.764	0.766	-0.381	-0.384	0.765	1.37	1.21	1.503	1.609	1.359	0.785
-0.003	0.757	0.76	-0.377	-0.381	0.759	1.363	1.208	1.496	1.606	1.357	0.787
0.003	0.765	0.763	-0.384	-0.38	0.764	1.358	1.204	1.496	1.607	1.362	0.792
0.009	0.77	0.761	-0.39	-0.376	0.765	1.353	1.2	1.492	1.605	1.364	0.795
0.018	0.769	0.751	-0.394	-0.366	0.761	1.351	1.196	1.487	1.601	1.365	0.798
0.019	0.77	0.751	-0.394	-0.365	0.761	1.349	1.194	1.484	1.598	1.366	0.801
0.016	0.769	0.753	-0.393	-0.368	0.761	1.35	1.194	1.478	1.597	1.367	0.805
0.019	0.774	0.755	-0.397	-0.367	0.765	1.351	1.192	1.475	1.598	1.371	0.813
0.021	0.775	0.754	-0.398	-0.366	0.765	1.355	1.195	1.474	1.598	1.375	0.822
0.024	0.771	0.749	-0.398	-0.362	0.76	1.351	1.192	1.468	1.593	1.375	0.826
0.022	0.761	0.74	-0.391	-0.358	0.75	1.343	1.186	1.46	1.585	1.372	0.829
0.017	0.747	0.73	-0.382	-0.355	0.738	1.337	1.178	1.453	1.582	1.373	0.837
0.015	0.734	0.718	-0.374	-0.351	0.726	1.315	1.157	1.435	1.565	1.365	0.836
0.018	0.749	0.731	-0.383	-0.356	0.74	1.301	1.147	1.419	1.551	1.355	0.831
0.023	0.767	0.745	-0.395	-0.36	0.756	1.296	1.145	1.409	1.543	1.351	0.833
0.032	0.768	0.737	-0.4	-0.352	0.752	1.297	1.145	1.403	1.541	1.357	0.847
0.033	0.761	0.729	-0.397	-0.347	0.745	1.292	1.137	1.393	1.534	1.356	0.854
0.028	0.75	0.722	-0.388	-0.347	0.736	1.281	1.121	1.377	1.519	1.345	0.852
0.053	0.772	0.72	-0.412	-0.333	0.746	1.287	1.122	1.373	1.518	1.351	0.865
0.062	0.777	0.715	-0.42	-0.326	0.747	1.278	1.115	1.361	1.508	1.348	0.872
0.047	0.753	0.706	-0.4	-0.329	0.73	1.262	1.1	1.341	1.49	1.338	0.871
0.057	0.76	0.703	-0.408	-0.322	0.732	1.255	1.092	1.329	1.479	1.336	0.879
0.064	0.772	0.708	-0.417	-0.322	0.741	1.246	1.083	1.317	1.468	1.333	0.884
0.068	0.778	0.711	-0.423	-0.321	0.745	1.238	1.074	1.304	1.454	1.325	0.888
0.075	0.781	0.706	-0.428	-0.315	0.744	1.229	1.063	1.286	1.438	1.315	0.894
0.079	0.779	0.701	-0.428	-0.31	0.74	1.224	1.056	1.28	1.436	1.321	0.901
0.083	0.784	0.702	-0.433	-0.31	0.743	1.216	1.047	1.268	1.427	1.316	0.907
0.088	0.788	0.7	-0.438	-0.306	0.745	1.204	1.034	1.25	1.409	1.303	0.91
0.095	0.787	0.693	-0.441	-0.299	0.741	1.195	1.025	1.238	1.397	1.296	0.916
0.099	0.784	0.685	-0.442	-0.293	0.736	1.188	1.014	1.222	1.384	1.289	0.921
0.104	0.782	0.678	-0.444	-0.286	0.731	1.177	1.004	1.208	1.371	1.282	0.927
0.107	0.783	0.676	-0.445	-0.285	0.731	1.168	0.994	1.194	1.355	1.271	0.932
0.108	0.776	0.668	-0.442	-0.28	0.723	1.161	0.986	1.179	1.341	1.262	0.933
0.111	0.773	0.662	-0.442	-0.276	0.718	1.154	0.977	1.165	1.327	1.252	0.937
0.117	0.777	0.66	-0.447	-0.272	0.719	1.151	0.969	1.152	1.315	1.244	0.943
0.122	0.769	0.647	-0.446	-0.262	0.709	1.142	0.961	1.141	1.304	1.238	0.947
0.124	0.763	0.639	-0.444	-0.258	0.702	1.135	0.954	1.125	1.29	1.228	0.951
0.129	0.763	0.634	-0.447	-0.253	0.7	1.129	0.949	1.113	1.277	1.22	0.954
0.14	0.766	0.626	-0.453	-0.243	0.697	1.125	0.943	1.104	1.264	1.212	0.957
0.144	0.766	0.622	-0.455	-0.239	0.695	1.121	0.936	1.091	1.251	1.202	0.962
0.142	0.754	0.612	-0.448	-0.234	0.683	1.109	0.926	1.072	1.233	1.188	0.958
0.145	0.75	0.604	-0.448	-0.229	0.677	1.104	0.919	1.058	1.216	1.178	0.961
0.152	0.754	0.602	-0.453	-0.225	0.678	1.103	0.918	1.048	1.196	1.161	0.957
0.162	0.762	0.601	-0.462	-0.22	0.682	1.095	0.909	1.04	1.192	1.157	0.957
0.174	0.768	0.594	-0.471	-0.209	0.681	1.088	0.9	1.033	1.194	1.163	0.972
0.175	0.758	0.583	-0.467	-0.204	0.671	1.084	0.897	1.02	1.174	1.143	0.966
0.172	0.749	0.577	-0.461	-0.202	0.663	1.077	0.891	1.008	1.16	1.131	0.962
0.181	0.752	0.571	-0.467	-0.195	0.661	1.077	0.895	1.002	1.153	1.126	0.967
0.186	0.755	0.569	-0.471	-0.192	0.662	1.081	0.895	0.996	1.145	1.121	0.969
0.188	0.758	0.571	-0.472	-0.191	0.664	1.077	0.886	0.986	1.137	1.113	0.968
0.185	0.753	0.569	-0.469	-0.192	0.661	1.077	0.886	0.979	1.127	1.107	0.969
0.176	0.745	0.569	-0.46	-0.196	0.657	1.079	0.888	0.975	1.121	1.103	0.969
0.184	0.744	0.559	-0.464	-0.188	0.651	1.073	0.879	0.963	1.109	1.091	0.967
0.191	0.738	0.546	-0.464	-0.177	0.642	1.059	0.863	0.947	1.095	1.077	0.963
0.189	0.74	0.551	-0.464	-0.181	0.646	1.06	0.863	0.945	1.089	1.073	0.963
0.191	0.742	0.551	-0.466	-0.18	0.646	1.065	0.867	0.941	1.085	1.069	0.966
0.182	0.726	0.544	-0.454	-0.181	0.635	1.05	0.858	0.927	1.071	1.055	0.958
0.172	0.713	0.541	-0.443	-0.184	0.627	1.04	0.847	0.916	1.059	1.042	0.952
0.159	0.689	0.529	-0.423	-0.185	0.609	1.024	0.832	0.898	1.042	1.024	0.942
0.156	0.679	0.523	-0.417	-0.183	0.602	1.018	0.822	0.887	1.03	1.014	0.934
0.175	0.701	0.524	-0.438	-0.174	0.613	1.023	0.826	0.891	1.032	1.018	0.941
0.214	0.737	0.522	-0.475	-0.154	0.629	1.04	0.842	0.905	1.042	1.031	0.955
0.25	0.776	0.526	-0.513	-0.138	0.652	1.056	0.855	0.915	1.051	1.038	0.968
0.241	0.764	0.523	-0.502	-0.141	0.644	1.05	0.85	0.905	1.04	1.028	0.96
0.225	0.743	0.518	-0.483	-0.147	0.63	1.054	0.848	0.896	1.03	1.018	0.954
0.233	0.742	0.509	-0.486	-0.139	0.625	1.056	0.85	0.894	1.026	1.016	0.955
0.227	0.729	0.502	-0.477	-0.138	0.616	1.051	0.848	0.889	1.018	1.008	0.952
0.224	0.715	0.491	-0.469	-0.134	0.604	1.04	0.84	0.878	1.004	0.998	0.943
0.249	0.698	0.449	-0.473	-0.1	0.574	1.022	0.824	0.855	0.981	0.974	0.919
0.204	0.685	0.482	-0.445	-0.139	0.584	1.03	0.829	0.858	0.983	0.97	0.929
0.162	0.692	0.529	-0.426	-0.184	0.611	1.043	0.84	0.87	0.998	0.986	0.947
0.184	0.697	0.512	-0.44	-0.165	0.605	1.042	0.838	0.865	0.992	0.979	0.937
0.195	0.695	0.5	-0.445	-0.153	0.598	1.046	0.84	0.861	0.985	0.973	0.934
0.205	0.695	0.49	-0.45	-0.142	0.593	1.05	0.841	0.856	0.982	0.972	0.933
0.201	0.692	0.491	-0.446	-0.145	0.592	1.047	0.835	0.851	0.977	0.966	0.929
0.199	0.691	0.492	-0.445	-0.146	0.592	1.044	0.827	0.848	0.974	0.961	0.926
0.203	0.692	0.488	-0.447	-0.142	0.59	1.044	0.826	0.846	0.972	0.959	0.927
0.204	0.695	0.49	-0.449	-0.142	0.592	1.044	0.829	0.845	0.97	0.956	0.925
0.206	0.694	0.488	-0.45	-0.141	0.591	1.044	0.828	0.842	0.968	0.952	0.921
0.201	0.689	0.488	-0.445	-0.143	0.589	1.046	0.828	0.842	0.965	0.952	0.919
0.203	0.688	0.485	-0.445	-0.141	0.587	1.048	0.828	0.842	0.964	0.954	0.918
0.204	0.69	0.485	-0.446	-0.141	0.588	1.052	0.831	0.845	0.966	0.954	0.921
0.204	0.691	0.486	-0.447	-0.141	0.589	1.052	0.831	0.844	0.964	0.952	0.919
0.199	0.691	0.492	-0.445	-0.147	0.592	1.054	0.83	0.844	0.966	0.953	0.921
0.2	0.692	0.491	-0.446	-0.145	0.592	1.056	0.833	0.848	0.969	0.956	0.922
0.195	0.691	0.495	-0.443	-0.15	0.594	1.06	0.837	0.851	0.969	0.958	0.923
0.192	0.692	0.5	-0.441	-0.154	0.596	1.06	0.838	0.85	0.968	0.956	0.923
0.2	0.691	0.491	-0.445	-0.145	0.591	1.059	0.835	0.842	0.959	0.95	0.919
0.201	0.688	0.487	-0.444	-0.143	0.588	1.063	0.838	0.838	0.956	0.945	0.916
0.254	0.688	0.434	-0.47	-0.09	0.561	1.048	0.822	0.819	0.937	0.925	0.898
0.216	0.685	0.469	-0.451	-0.126	0.577	1.06	0.836	0.828	0.947	0.936	0.909
0.158	0.68	0.523	-0.418	-0.182	0.602	1.077	0.855	0.845	0.964	0.953	0.924
0.202	0.683	0.481	-0.442	-0.14	0.583	1.067	0.844	0.831	0.949	0.94	0.91
0.202	0.679	0.477	-0.44	-0.138	0.579	1.062	0.842	0.829	0.947	0.936	0.907
0.196	0.676	0.48	-0.436	-0.142	0.579	1.051	0.832	0.825	0.943	0.932	0.904
0.197	0.678	0.48	-0.438	-0.141	0.58	1.06	0.838	0.828	0.945	0.934	0.904
0.189	0.665	0.476	-0.426	-0.144	0.571	1.059	0.836	0.826	0.944	0.932	0.902
0.177	0.656	0.478	-0.416	-0.15	0.568	1.054	0.828	0.82	0.939	0.928	0.898
0.176	0.662	0.485	-0.419	-0.154	0.574	1.058	0.831	0.821	0.94	0.926	0.897
0.184	0.673	0.489	-0.429	-0.152	0.582	1.054	0.829	0.821	0.94	0.927	0.895
0.184	0.674	0.49	-0.429	-0.153	0.583	1.052	0.827	0.82	0.941	0.928	0.897
0.188	0.674	0.486	-0.431	-0.149	0.581	1.048	0.826	0.817	0.939	0.927	0.894
0.186	0.675	0.49	-0.43	-0.152	0.583	1.05	0.823	0.812	0.934	0.925	0.891
0.175	0.657	0.482	-0.416	-0.153	0.57	1.042	0.811	0.798	0.923	0.914	0.885
0.173	0.651	0.478	-0.412	-0.152	0.565	1.032	0.803	0.791	0.916	0.905	0.876
0.182	0.663	0.481	-0.422	-0.15	0.573	1.036	0.806	0.795	0.92	0.91	0.881
0.189	0.67	0.482	-0.429	-0.146	0.577	1.035	0.807	0.798	0.925	0.914	0.885
0.19	0.674	0.485	-0.432	-0.147	0.58	1.034	0.806	0.798	0.925	0.916	0.885
0.192	0.677	0.486	-0.434	-0.147	0.582	1.032	0.808	0.8	0.928	0.921	0.889
0.191	0.678	0.487	-0.434	-0.148	0.583	1.024	0.805	0.802	0.929	0.923	0.889
0.186	0.679	0.493	-0.432	-0.153	0.587	1.016	0.803	0.803	0.93	0.925	0.889
0.186	0.683	0.497	-0.434	-0.156	0.591	1.019	0.809	0.81	0.939	0.932	0.892
0.189	0.688	0.499	-0.438	-0.155	0.594	1.024	0.814	0.816	0.943	0.938	0.896
0.186	0.688	0.501	-0.436	-0.158	0.595	1.024	0.812	0.819	0.947	0.941	0.899
0.18	0.681	0.501	-0.43	-0.161	0.592	1.03	0.809	0.817	0.946	0.942	0.898
0.176	0.682	0.506	-0.429	-0.165	0.595	1.036	0.809	0.816	0.945	0.942	0.897
0.176	0.683	0.506	-0.429	-0.165	0.595	1.046	0.813	0.815	0.944	0.941	0.896
0.174	0.675	0.501	-0.424	-0.164	0.589	1.052	0.815	0.814	0.941	0.939	0.894
0.179	0.684	0.505	-0.431	-0.164	0.595	1.05	0.818	0.815	0.944	0.942	0.897
0.193	0.702	0.509	-0.447	-0.158	0.606	1.05	0.818	0.82	0.951	0.949	0.903
0.194	0.703	0.509	-0.448	-0.158	0.607	1.042	0.814	0.818	0.95	0.949	0.904
0.193	0.707	0.513	-0.45	-0.16	0.61	1.038	0.814	0.818	0.951	0.95	0.904
0.194	0.71	0.516	-0.452	-0.161	0.613	1.037	0.811	0.82	0.954	0.953	0.905
0.187	0.702	0.515	-0.444	-0.164	0.609	1.022	0.801	0.812	0.949	0.949	0.901
0.192	0.712	0.519	-0.452	-0.164	0.616	1.022	0.799	0.814	0.952	0.951	0.903
0.204	0.732	0.527	-0.468	-0.161	0.629	1.021	0.801	0.82	0.955	0.957	0.908
0.205	0.733	0.528	-0.469	-0.162	0.63	1.018	0.797	0.819	0.955	0.958	0.908
0.211	0.724	0.512	-0.468	-0.15	0.619	1.028	0.807	0.829	0.966	0.968	0.918
0.218	0.723	0.504	-0.47	-0.142	0.614	1.033	0.814	0.836	0.972	0.972	0.923
0.204	0.715	0.51	-0.459	-0.153	0.613	1.016	0.8	0.824	0.962	0.962	0.914
0.201	0.719	0.518	-0.46	-0.16	0.619	1.016	0.8	0.824	0.963	0.963	0.911
0.204	0.721	0.516	-0.462	-0.156	0.619	1.024	0.807	0.83	0.968	0.968	0.914
0.179	0.681	0.501	-0.429	-0.161	0.592	1	0.792	0.815	0.956	0.953	0.904
0.187	0.695	0.507	-0.441	-0.16	0.601	1	0.791	0.816	0.96	0.957	0.907
0.2	0.714	0.514	-0.457	-0.158	0.615	1.012	0.796	0.824	0.967	0.965	0.913
0.182	0.696	0.513	-0.439	-0.166	0.605	0.999	0.786	0.814	0.959	0.955	0.903
0.192	0.707	0.515	-0.449	-0.162	0.612	0.998	0.787	0.817	0.963	0.959	0.908
0.196	0.71	0.514	-0.453	-0.16	0.613	0.998	0.787	0.819	0.966	0.963	0.913
0.197	0.71	0.513	-0.453	-0.158	0.612	0.998	0.786	0.818	0.965	0.96	0.911
0.201	0.712	0.51	-0.456	-0.154	0.611	1	0.787	0.82	0.967	0.963	0.912
0.196	0.688	0.491	-0.442	-0.147	0.59	1.002	0.791	0.823	0.971	0.968	0.916
0.195	0.683	0.489	-0.439	-0.147	0.587	1	0.792	0.822	0.968	0.967	0.918
0.198	0.713	0.515	-0.455	-0.159	0.615	0.992	0.785	0.815	0.96	0.958	0.908
0.2	0.725	0.525	-0.463	-0.163	0.625	0.991	0.782	0.811	0.959	0.956	0.904
0.203	0.73	0.526	-0.466	-0.162	0.628	0.994	0.783	0.814	0.959	0.958	0.907
0.209	0.734	0.524	-0.471	-0.158	0.629	0.992	0.783	0.812	0.956	0.955	0.906
0.209	0.729	0.52	-0.469	-0.155	0.625	0.994	0.785	0.814	0.957	0.956	0.907
0.206	0.719	0.512	-0.463	-0.153	0.616	0.993	0.785	0.815	0.958	0.96	0.907
0.198	0.706	0.507	-0.452	-0.154	0.607	0.987	0.778	0.81	0.956	0.955	0.905
0.197	0.703	0.505	-0.45	-0.154	0.605	0.986	0.775	0.809	0.955	0.954	0.906
0.2	0.706	0.506	-0.453	-0.153	0.606	0.987	0.777	0.811	0.954	0.954	0.906
0.192	0.703	0.51	-0.447	-0.16	0.607	0.984	0.778	0.81	0.951	0.951	0.902
0.179	0.686	0.507	-0.432	-0.164	0.597	0.975	0.772	0.805	0.945	0.947	0.898
0.183	0.689	0.505	-0.435	-0.162	0.598	0.972	0.773	0.808	0.948	0.949	0.899
0.176	0.684	0.507	-0.43	-0.166	0.596	0.973	0.774	0.806	0.947	0.947	0.897
0.181	0.694	0.512	-0.438	-0.166	0.603	0.985	0.78	0.81	0.951	0.95	0.901
0.236	0.761	0.525	-0.498	-0.144	0.643	1.019	0.803	0.835	0.976	0.975	0.922
0.239	0.761	0.521	-0.5	-0.141	0.641	1.024	0.807	0.836	0.978	0.974	0.924
0.189	0.693	0.504	-0.441	-0.158	0.599	0.995	0.783	0.81	0.952	0.949	0.901
0.18	0.677	0.497	-0.428	-0.159	0.588	0.982	0.772	0.8	0.944	0.94	0.894
0.218	0.711	0.493	-0.465	-0.138	0.603	1.004	0.794	0.817	0.959	0.954	0.909
0.222	0.716	0.493	-0.469	-0.136	0.605	1.01	0.799	0.822	0.961	0.958	0.913
0.206	0.702	0.495	-0.454	-0.144	0.599	0.997	0.789	0.814	0.955	0.951	0.907
0.2	0.692	0.491	-0.446	-0.146	0.592	0.994	0.788	0.812	0.95	0.947	0.902
0.2	0.692	0.492	-0.446	-0.146	0.592	0.994	0.789	0.812	0.949	0.948	0.906
0.207	0.692	0.484	-0.449	-0.139	0.588	0.994	0.791	0.811	0.948	0.948	0.904
0.216	0.698	0.481	-0.457	-0.133	0.59	0.997	0.793	0.814	0.949	0.951	0.905
0.23	0.719	0.489	-0.473	-0.13	0.604	1.005	0.801	0.821	0.957	0.961	0.917
0.224	0.709	0.484	-0.466	-0.13	0.597	1.008	0.804	0.819	0.954	0.956	0.908
0.218	0.697	0.478	-0.457	-0.13	0.588	1.008	0.805	0.815	0.946	0.951	0.909
0.217	0.689	0.472	-0.453	-0.128	0.581	1.01	0.807	0.807	0.93	0.931	0.894
0.215	0.686	0.471	-0.451	-0.128	0.579	1.006	0.801	0.808	0.939	0.935	0.891
0.224	0.688	0.464	-0.456	-0.12	0.576	1.005	0.8	0.814	0.948	0.948	0.905
0.249	0.686	0.438	-0.468	-0.094	0.562	1	0.796	0.804	0.934	0.93	0.89
0.25	0.69	0.44	-0.469	-0.095	0.565	1	0.795	0.804	0.933	0.931	0.892
0.227	0.687	0.46	-0.457	-0.117	0.574	1.008	0.804	0.81	0.939	0.938	0.898
0.203	0.68	0.477	-0.442	-0.137	0.579	1.014	0.805	0.811	0.942	0.94	0.898
0.176	0.674	0.498	-0.425	-0.161	0.587	1.021	0.812	0.817	0.947	0.945	0.902
0.18	0.676	0.496	-0.428	-0.158	0.587	1.024	0.817	0.822	0.949	0.947	0.905
0.201	0.677	0.476	-0.439	-0.138	0.577	1.022	0.816	0.819	0.946	0.943	0.903
0.205	0.673	0.469	-0.439	-0.132	0.572	1.024	0.819	0.818	0.946	0.94	0.901
0.205	0.675	0.469	-0.44	-0.132	0.573	1.026	0.822	0.822	0.948	0.942	0.902
0.205	0.677	0.472	-0.442	-0.134	0.575	1.022	0.817	0.819	0.948	0.941	0.901
0.205	0.677	0.471	-0.441	-0.133	0.575	1.019	0.811	0.817	0.946	0.939	0.901
0.199	0.671	0.472	-0.435	-0.137	0.572	1.02	0.816	0.82	0.946	0.939	0.901
0.192	0.668	0.476	-0.429	-0.142	0.573	1.022	0.817	0.82	0.945	0.938	0.898
0.197	0.67	0.474	-0.433	-0.139	0.573	1.019	0.809	0.814	0.941	0.933	0.896
0.204	0.67	0.466	-0.437	-0.131	0.569	1.014	0.8	0.807	0.935	0.929	0.893
0.204	0.67	0.466	-0.437	-0.131	0.569	1.014	0.8	0.806	0.933	0.926	0.891
0.2	0.669	0.47	-0.434	-0.135	0.571	1.018	0.803	0.806	0.933	0.924	0.892
0.203	0.67	0.467	-0.436	-0.132	0.569	1.02	0.809	0.805	0.931	0.923	0.89
0.204	0.673	0.469	-0.439	-0.133	0.572	1.022	0.811	0.808	0.932	0.923	0.89
0.206	0.679	0.473	-0.442	-0.134	0.577	1.032	0.818	0.817	0.941	0.931	0.896
0.208	0.683	0.476	-0.446	-0.134	0.58	1.036	0.817	0.817	0.942	0.932	0.898
0.211	0.682	0.471	-0.446	-0.131	0.578	1.03	0.814	0.816	0.943	0.931	0.897
0.213	0.683	0.47	-0.449	-0.129	0.578	1.031	0.816	0.818	0.942	0.929	0.895
0.2	0.671	0.471	-0.435	-0.137	0.572	1.024	0.805	0.807	0.93	0.917	0.891
0.194	0.658	0.464	-0.426	-0.135	0.561	1.018	0.802	0.805	0.93	0.919	0.885
0.195	0.656	0.461	-0.425	-0.134	0.559	1.018	0.802	0.803	0.929	0.917	0.884
0.186	0.648	0.462	-0.416	-0.138	0.555	1.018	0.8	0.797	0.92	0.91	0.881
0.183	0.646	0.463	-0.414	-0.14	0.554	1.019	0.802	0.797	0.919	0.909	0.879
0.19	0.653	0.464	-0.421	-0.137	0.558	1.022	0.802	0.8	0.919	0.91	0.881
0.193	0.657	0.465	-0.425	-0.136	0.562	1.022	0.8	0.799	0.918	0.911	0.882
0.194	0.66	0.467	-0.426	-0.137	0.564	1.022	0.797	0.795	0.917	0.91	0.882
0.194	0.662	0.468	-0.428	-0.137	0.565	1.024	0.8	0.797	0.916	0.908	0.881
0.193	0.663	0.469	-0.428	-0.138	0.567	1.024	0.802	0.798	0.917	0.91	0.882
0.195	0.663	0.469	-0.429	-0.137	0.566	1.024	0.803	0.8	0.919	0.914	0.88
0.195	0.663	0.468	-0.429	-0.137	0.566	1.026	0.806	0.8	0.917	0.906	0.879
0.195	0.665	0.469	-0.43	-0.137	0.568	1.026	0.805	0.799	0.918	0.908	0.883
0.193	0.663	0.47	-0.428	-0.139	0.568	1.024	0.801	0.8	0.916	0.908	0.881
0.197	0.669	0.472	-0.432	-0.138	0.571	1.028	0.802	0.802	0.916	0.907	0.881
0.198	0.674	0.476	-0.436	-0.139	0.575	1.034	0.805	0.803	0.916	0.911	0.88
0.195	0.668	0.473	-0.431	-0.139	0.571	1.032	0.804	0.803	0.915	0.909	0.883
0.195	0.666	0.471	-0.43	-0.139	0.569	1.032	0.806	0.803	0.917	0.91	0.881
0.193	0.668	0.475	-0.43	-0.141	0.573	1.038	0.81	0.806	0.918	0.912	0.88
0.192	0.667	0.475	-0.429	-0.141	0.572	1.037	0.81	0.805	0.918	0.913	0.884
0.19	0.665	0.475	-0.427	-0.142	0.57	1.033	0.808	0.805	0.918	0.911	0.881
0.188	0.663	0.475	-0.425	-0.143	0.569	1.032	0.805	0.805	0.918	0.912	0.881
0.191	0.659	0.469	-0.425	-0.139	0.565	1.034	0.806	0.808	0.919	0.914	0.883
0.193	0.663	0.47	-0.427	-0.139	0.567	1.037	0.809	0.81	0.92	0.915	0.884
0.192	0.668	0.476	-0.43	-0.142	0.572	1.037	0.81	0.809	0.919	0.914	0.882
0.195	0.671	0.476	-0.433	-0.141	0.575	1.043	0.816	0.814	0.923	0.913	0.884
0.195	0.673	0.479	-0.433	-0.142	0.577	1.044	0.816	0.814	0.926	0.916	0.886
0.195	0.674	0.479	-0.434	-0.142	0.578	1.045	0.817	0.816	0.927	0.918	0.886
0.195	0.672	0.477	-0.433	-0.141	0.575	1.044	0.815	0.813	0.924	0.915	0.882
0.196	0.674	0.478	-0.435	-0.141	0.577	1.042	0.812	0.81	0.92	0.913	0.88
0.195	0.675	0.481	-0.435	-0.143	0.579	1.04	0.809	0.812	0.922	0.918	0.885
0.189	0.668	0.479	-0.428	-0.145	0.574	1.028	0.798	0.802	0.916	0.911	0.878
0.183	0.658	0.475	-0.42	-0.146	0.567	1.03	0.798	0.798	0.912	0.907	0.875
0.184	0.651	0.467	-0.417	-0.141	0.559	1.038	0.805	0.801	0.913	0.908	0.877
0.191	0.658	0.468	-0.424	-0.139	0.564	1.042	0.807	0.804	0.914	0.907	0.877
0.194	0.663	0.469	-0.428	-0.138	0.567	1.046	0.811	0.807	0.918	0.914	0.882
0.193	0.663	0.47	-0.428	-0.139	0.567	1.042	0.807	0.801	0.912	0.898	0.868
0.193	0.663	0.47	-0.428	-0.139	0.568	1.032	0.805	0.801	0.912	0.896	0.868
0.196	0.663	0.467	-0.429	-0.136	0.566	1.032	0.812	0.81	0.923	0.917	0.886
0.198	0.664	0.467	-0.43	-0.135	0.566	1.036	0.815	0.812	0.922	0.913	0.883
0.2	0.666	0.467	-0.433	-0.134	0.567	1.041	0.82	0.814	0.921	0.91	0.883
0.196	0.667	0.471	-0.431	-0.138	0.57	1.045	0.821	0.814	0.922	0.908	0.881
0.2	0.666	0.466	-0.432	-0.134	0.567	1.048	0.82	0.81	0.919	0.904	0.88
0.197	0.658	0.461	-0.427	-0.132	0.56	1.06	0.824	0.809	0.916	0.904	0.878
0.184	0.643	0.459	-0.413	-0.138	0.551	1.067	0.825	0.805	0.911	0.897	0.873
0.185	0.641	0.456	-0.413	-0.135	0.548	1.079	0.829	0.804	0.908	0.895	0.873
0.181	0.641	0.46	-0.411	-0.14	0.551	1.083	0.828	0.801	0.905	0.892	0.871
0.189	0.638	0.45	-0.413	-0.131	0.544	1.075	0.819	0.795	0.9	0.885	0.867
0.195	0.645	0.45	-0.42	-0.128	0.548	1.079	0.826	0.798	0.902	0.89	0.871
0.193	0.649	0.456	-0.42	-0.132	0.552	1.081	0.832	0.802	0.904	0.894	0.875
0.194	0.65	0.456	-0.422	-0.131	0.553	1.079	0.828	0.799	0.903	0.895	0.875
0.208	0.65	0.442	-0.429	-0.117	0.546	1.067	0.815	0.785	0.893	0.888	0.87
0.233	0.65	0.416	-0.441	-0.092	0.533	1.055	0.8	0.768	0.879	0.876	0.863
0.191	0.652	0.462	-0.421	-0.136	0.557	1.067	0.811	0.779	0.892	0.894	0.881
0.159	0.651	0.492	-0.405	-0.167	0.573	1.065	0.811	0.782	0.898	0.902	0.892
0.18	0.652	0.472	-0.416	-0.146	0.562	1.049	0.796	0.769	0.887	0.894	0.884
0.189	0.655	0.466	-0.421	-0.139	0.56	1.045	0.793	0.769	0.888	0.897	0.885
0.193	0.657	0.465	-0.424	-0.136	0.561	1.04	0.79	0.765	0.892	0.902	0.889
0.186	0.654	0.468	-0.42	-0.141	0.561	1.041	0.791	0.769	0.901	0.912	0.892
0.186	0.654	0.468	-0.419	-0.141	0.561	1.042	0.791	0.777	0.909	0.92	0.893
0.18	0.655	0.475	-0.417	-0.147	0.566	1.04	0.79	0.786	0.921	0.932	0.894
0.176	0.661	0.486	-0.418	-0.155	0.574	1.042	0.791	0.799	0.942	0.953	0.901
0.189	0.688	0.498	-0.438	-0.155	0.594	1.045	0.79	0.81	0.964	0.979	0.916
0.185	0.696	0.511	-0.441	-0.163	0.604	1.036	0.776	0.805	0.971	0.995	0.922
0.174	0.692	0.518	-0.432	-0.172	0.605	1.027	0.763	0.792	0.97	1.002	0.928
0.177	0.697	0.52	-0.436	-0.172	0.609	1.02	0.759	0.788	0.975	1.016	0.939
0.17	0.697	0.527	-0.433	-0.178	0.613	1.002	0.74	0.773	0.966	1.014	0.934
0.177	0.714	0.535	-0.446	-0.179	0.625	0.994	0.731	0.763	0.962	1.02	0.943
0.17	0.706	0.536	-0.438	-0.183	0.622	0.981	0.717	0.734	0.936	1.005	0.936
0.167	0.707	0.54	-0.436	-0.187	0.624	0.963	0.699	0.701	0.904	0.985	0.927
0.163	0.704	0.541	-0.433	-0.19	0.623	0.953	0.69	0.681	0.885	0.976	0.931
0.09	0.631	0.54	-0.36	-0.225	0.586	0.912	0.652	0.633	0.839	0.942	0.911
0.025	0.549	0.525	-0.286	-0.251	0.537	0.871	0.614	0.572	0.777	0.899	0.889
0.106	0.626	0.519	-0.366	-0.206	0.574	0.865	0.603	0.511	0.72	0.871	0.903
0.265	0.792	0.527	-0.528	-0.131	0.66	0.879	0.611	0.471	0.681	0.867	0.946
0.234	0.765	0.531	-0.5	-0.148	0.648	0.834	0.563	0.381	0.589	0.809	0.94
0.194	0.709	0.515	-0.451	-0.161	0.612	0.798	0.52	0.292	0.495	0.747	0.931
0.203	0.689	0.486	-0.446	-0.141	0.588	0.779	0.491	0.214	0.415	0.7	0.944
0.202	0.694	0.491	-0.448	-0.145	0.593	0.717	0.416	0.087	0.3	0.632	0.949
0.253	0.752	0.499	-0.502	-0.123	0.626	0.686	0.361	-0.037	0.176	0.558	0.959
0.259	0.758	0.499	-0.508	-0.12	0.629	0.626	0.28	-0.218	-0.014	0.423	0.934
0.246	0.748	0.501	-0.496	-0.128	0.625	0.531	0.163	-0.437	-0.234	0.262	0.899
0.245	0.742	0.496	-0.493	-0.125	0.62	0.454	0.058	-0.642	-0.445	0.106	0.867
0.265	0.757	0.493	-0.511	-0.114	0.625	0.384	-0.036	-0.816	-0.617	-0.022	0.837
0.289	0.769	0.48	-0.529	-0.096	0.625	0.298	-0.137	-0.977	-0.761	-0.117	0.847
0.282	0.748	0.466	-0.515	-0.092	0.607	0.199	-0.249	-1.153	-0.93	-0.239	0.833
0.279	0.726	0.447	-0.501	-0.085	0.587	0.132	-0.336	-1.305	-1.09	-0.366	0.796
0.301	0.719	0.418	-0.509	-0.059	0.569	0.086	-0.402	-1.44	-1.242	-0.489	0.779
0.321	0.712	0.391	-0.516	-0.035	0.551	0.025	-0.481	-1.587	-1.403	-0.622	0.754
0.328	0.709	0.381	-0.518	-0.026	0.544	-0.051	-0.579	-1.746	-1.567	-0.754	0.722
0.341	0.733	0.392	-0.536	-0.025	0.562	-0.113	-0.665	-1.875	-1.692	-0.852	0.709
0.371	0.775	0.404	-0.573	-0.016	0.59	-0.168	-0.743	-1.975	-1.78	-0.91	0.728
0.385	0.801	0.416	-0.593	-0.015	0.609	-0.248	-0.83	-2.06	-1.849	-0.952	0.751
0.407	0.837	0.429	-0.622	-0.011	0.633	-0.316	-0.904	-2.119	-1.889	-0.972	0.78
0.439	0.889	0.45	-0.663	-0.005	0.669	-0.37	-0.965	-2.168	-1.925	-0.99	0.803
0.467	0.922	0.457	-0.695	0.005	0.69	-0.417	-1.009	-2.201	-1.946	-0.996	0.838
0.504	0.933	0.429	-0.719	0.037	0.681	-0.461	-1.044	-2.219	-1.954	-0.985	0.899
0.527	0.921	0.395	-0.724	0.066	0.658	-0.508	-1.079	-2.231	-1.961	-0.98	0.957
0.583	0.947	0.364	-0.764	0.11	0.656	-0.534	-1.103	-2.255	-1.984	-0.994	1.006
0.639	0.993	0.354	-0.816	0.142	0.674	-0.558	-1.136	-2.265	-1.98	-0.976	1.079
0.686	1.019	0.333	-0.853	0.176	0.676	-0.587	-1.159	-2.248	-1.95	-0.935	1.158
0.756	1.049	0.293	-0.902	0.232	0.671	-0.614	-1.167	-2.228	-1.931	-0.916	1.224
0.799	1.056	0.257	-0.927	0.271	0.656	-0.647	-1.181	-2.207	-1.905	-0.89	1.293
0.823	1.063	0.24	-0.943	0.291	0.651	-0.675	-1.204	-2.185	-1.879	-0.872	1.341
0.858	1.116	0.259	-0.987	0.299	0.688	-0.686	-1.21	-2.149	-1.837	-0.853	1.361
0.901	1.171	0.27	-1.036	0.316	0.721	-0.699	-1.214	-2.125	-1.816	-0.866	1.345
0.926	1.187	0.261	-1.056	0.333	0.724	-0.715	-1.224	-2.119	-1.827	-0.914	1.307
0.945	1.19	0.244	-1.067	0.35	0.718	-0.705	-1.212	-2.092	-1.819	-0.955	1.26
0.954	1.178	0.225	-1.065	0.364	0.702	-0.666	-1.177	-2.036	-1.786	-0.982	1.196
0.958	1.151	0.194	-1.054	0.382	0.673	-0.625	-1.128	-1.966	-1.744	-1.006	1.123
0.972	1.151	0.179	-1.062	0.397	0.665	-0.597	-1.087	-1.902	-1.707	-1.035	1.05
0.983	1.141	0.159	-1.062	0.412	0.65	-0.568	-1.039	-1.829	-1.663	-1.058	0.979
0.982	1.071	0.089	-1.026	0.446	0.581	-0.517	-0.964	-1.74	-1.617	-1.093	0.879
0.966	0.958	-0.009	-0.962	0.487	0.474	-0.446	-0.869	-1.635	-1.56	-1.121	0.78
0.951	0.874	-0.077	-0.912	0.514	0.399	-0.369	-0.769	-1.512	-1.472	-1.107	0.696
0.938	0.779	-0.159	-0.859	0.548	0.31	-0.274	-0.652	-1.365	-1.351	-1.049	0.628
0.926	0.627	-0.298	-0.776	0.612	0.165	-0.171	-0.522	-1.215	-1.234	-0.99	0.568
0.896	0.504	-0.393	-0.701	0.644	0.056	-0.083	-0.421	-1.111	-1.155	-0.965	0.473
0.878	0.38	-0.499	-0.628	0.689	-0.059	-0.001	-0.318	-1.002	-1.067	-0.912	0.441
0.873	0.24	-0.632	-0.556	0.753	-0.196	0.08	-0.212	-0.879	-0.963	-0.837	0.45
0.865	0.121	-0.743	-0.492	0.803	-0.311	0.15	-0.127	-0.778	-0.874	-0.776	0.441
0.856	0.005	-0.851	-0.43	0.854	-0.422	0.216	-0.044	-0.681	-0.791	-0.719	0.44
0.84	-0.08	-0.92	-0.38	0.879	-0.499	0.271	0.021	-0.599	-0.72	-0.671	0.426
0.83	-0.138	-0.968	-0.346	0.898	-0.552	0.311	0.071	-0.528	-0.657	-0.626	0.419
0.823	-0.191	-1.014	-0.316	0.918	-0.602	0.354	0.122	-0.458	-0.59	-0.572	0.431
0.808	-0.221	-1.029	-0.293	0.918	-0.625	0.397	0.172	-0.39	-0.519	-0.513	0.443
0.787	-0.238	-1.025	-0.274	0.906	-0.631	0.434	0.208	-0.334	-0.461	-0.465	0.445
0.766	-0.25	-1.016	-0.258	0.891	-0.633	0.472	0.243	-0.283	-0.409	-0.42	0.452
0.744	-0.252	-0.996	-0.245	0.87	-0.624	0.508	0.284	-0.227	-0.35	-0.369	0.459
0.732	-0.257	-0.989	-0.237	0.861	-0.623	0.543	0.322	-0.172	-0.296	-0.322	0.462
0.713	-0.253	-0.966	-0.23	0.84	-0.609	0.577	0.359	-0.116	-0.238	-0.274	0.468
0.691	-0.235	-0.926	-0.228	0.808	-0.581	0.611	0.397	-0.057	-0.175	-0.216	0.481
0.68	-0.198	-0.878	-0.24	0.779	-0.537	0.644	0.434	0.009	-0.103	-0.146	0.51
0.664	-0.164	-0.828	-0.249	0.746	-0.496	0.67	0.466	0.06	-0.045	-0.091	0.522
0.64	-0.133	-0.773	-0.254	0.707	-0.453	0.691	0.489	0.099	0.002	-0.045	0.533
0.603	-0.09	-0.693	-0.256	0.647	-0.391	0.714	0.508	0.151	0.068	0.022	0.552
0.57	-0.022	-0.592	-0.274	0.581	-0.307	0.739	0.533	0.222	0.159	0.114	0.581
0.527	0.073	-0.454	-0.3	0.49	-0.19	0.772	0.562	0.304	0.269	0.225	0.632
0.472	0.154	-0.318	-0.314	0.395	-0.082	0.807	0.589	0.377	0.363	0.324	0.667
0.417	0.236	-0.181	-0.327	0.299	0.028	0.838	0.615	0.449	0.458	0.421	0.7
0.366	0.304	-0.061	-0.335	0.214	0.121	0.874	0.651	0.52	0.546	0.513	0.722
0.329	0.344	0.015	-0.336	0.157	0.179	0.908	0.686	0.573	0.604	0.566	0.724
0.301	0.371	0.07	-0.336	0.116	0.221	0.932	0.711	0.611	0.648	0.608	0.733
0.281	0.4	0.119	-0.34	0.081	0.26	0.954	0.733	0.646	0.689	0.651	0.739
0.253	0.42	0.167	-0.336	0.043	0.293	0.972	0.748	0.675	0.726	0.684	0.745
0.231	0.428	0.198	-0.329	0.017	0.313	0.987	0.764	0.7	0.755	0.714	0.75
0.217	0.444	0.227	-0.33	-0.004	0.335	1.006	0.785	0.726	0.783	0.739	0.754
0.213	0.457	0.243	-0.335	-0.015	0.35	1.013	0.79	0.741	0.801	0.758	0.756
0.215	0.474	0.259	-0.344	-0.021	0.367	1.018	0.795	0.757	0.821	0.777	0.766
0.207	0.491	0.283	-0.349	-0.038	0.388	1.026	0.806	0.78	0.845	0.801	0.78
0.203	0.504	0.302	-0.353	-0.05	0.404	1.033	0.817	0.797	0.865	0.821	0.79
0.201	0.521	0.32	-0.36	-0.059	0.42	1.042	0.829	0.816	0.884	0.84	0.798
0.194	0.534	0.34	-0.363	-0.073	0.438	1.054	0.842	0.834	0.903	0.861	0.808
0.184	0.548	0.364	-0.366	-0.09	0.457	1.068	0.856	0.853	0.924	0.879	0.821
0.172	0.542	0.37	-0.357	-0.099	0.457	1.067	0.853	0.858	0.931	0.885	0.817
0.169	0.541	0.372	-0.355	-0.102	0.458	1.062	0.848	0.858	0.935	0.889	0.814
0.174	0.555	0.382	-0.364	-0.103	0.469	1.065	0.852	0.872	0.952	0.905	0.825
0.175	0.568	0.392	-0.371	-0.108	0.48	1.079	0.865	0.886	0.968	0.921	0.833
0.18	0.585	0.405	-0.382	-0.112	0.494	1.093	0.877	0.898	0.981	0.933	0.839
0.175	0.579	0.404	-0.377	-0.114	0.491	1.088	0.877	0.9	0.984	0.934	0.836
0.171	0.58	0.409	-0.375	-0.119	0.494	1.091	0.882	0.905	0.989	0.94	0.836
0.171	0.591	0.419	-0.381	-0.124	0.505	1.099	0.889	0.914	0.999	0.949	0.841
0.168	0.595	0.426	-0.382	-0.129	0.511	1.103	0.891	0.919	1.005	0.954	0.841
0.168	0.598	0.43	-0.383	-0.131	0.514	1.104	0.893	0.925	1.01	0.959	0.843
0.168	0.597	0.429	-0.382	-0.131	0.513	1.103	0.895	0.927	1.012	0.962	0.843
0.169	0.604	0.434	-0.386	-0.133	0.518	1.106	0.901	0.934	1.02	0.968	0.845
0.165	0.601	0.436	-0.383	-0.136	0.519	1.109	0.906	0.938	1.025	0.972	0.847
0.162	0.599	0.437	-0.381	-0.138	0.518	1.107	0.906	0.94	1.025	0.973	0.845
0.162	0.598	0.436	-0.38	-0.138	0.517	1.105	0.905	0.943	1.028	0.977	0.845
0.152	0.591	0.439	-0.371	-0.143	0.515	1.105	0.902	0.942	1.028	0.976	0.843
0.147	0.592	0.445	-0.369	-0.148	0.518	1.107	0.905	0.944	1.029	0.975	0.839
0.146	0.596	0.449	-0.371	-0.151	0.523	1.115	0.911	0.95	1.036	0.981	0.843
0.146	0.602	0.455	-0.374	-0.154	0.528	1.123	0.919	0.957	1.042	0.987	0.845
0.15	0.608	0.457	-0.379	-0.153	0.532	1.123	0.92	0.957	1.046	0.99	0.845
0.152	0.609	0.457	-0.38	-0.152	0.533	1.122	0.92	0.958	1.045	0.991	0.844
0.148	0.611	0.462	-0.379	-0.157	0.536	1.125	0.92	0.959	1.047	0.993	0.843
0.151	0.612	0.461	-0.381	-0.155	0.536	1.129	0.923	0.959	1.046	0.993	0.848
0.148	0.609	0.46	-0.379	-0.155	0.534	1.134	0.932	0.963	1.044	0.984	0.838
0.144	0.612	0.467	-0.378	-0.161	0.539	1.136	0.93	0.969	1.062	1	0.845
0.148	0.615	0.466	-0.382	-0.159	0.54	1.137	0.932	0.974	1.067	1.008	0.852
0.147	0.613	0.465	-0.38	-0.159	0.539	1.14	0.936	0.976	1.065	1.001	0.845
0.144	0.608	0.464	-0.376	-0.16	0.536	1.143	0.939	0.978	1.069	1.005	0.847
0.14	0.605	0.465	-0.371	-0.163	0.535	1.145	0.942	0.977	1.068	1.002	0.844
0.137	0.603	0.466	-0.369	-0.165	0.534	1.143	0.939	0.976	1.067	1.002	0.841
0.137	0.603	0.467	-0.369	-0.165	0.535	1.144	0.941	0.98	1.07	1.004	0.84
0.139	0.606	0.467	-0.371	-0.164	0.536	1.146	0.946	0.983	1.074	1.007	0.842
0.137	0.605	0.468	-0.37	-0.166	0.536	1.145	0.945	0.984	1.074	1.006	0.84
0.131	0.604	0.473	-0.367	-0.171	0.538	1.141	0.939	0.982	1.073	1.006	0.838
0.131	0.608	0.477	-0.369	-0.173	0.542	1.145	0.942	0.984	1.074	1.008	0.839
0.128	0.61	0.482	-0.368	-0.177	0.546	1.145	0.946	0.985	1.073	1.004	0.836
0.132	0.613	0.481	-0.371	-0.175	0.547	1.147	0.946	0.987	1.075	1.006	0.836
0.128	0.61	0.482	-0.368	-0.177	0.546	1.15	0.948	0.989	1.079	1.007	0.835
0.118	0.601	0.482	-0.359	-0.182	0.542	1.151	0.95	0.991	1.078	1.008	0.833
0.121	0.603	0.481	-0.362	-0.18	0.542	1.155	0.95	0.994	1.081	1.009	0.833
0.139	0.62	0.48	-0.38	-0.171	0.55	1.166	0.955	1	1.087	1.016	0.838
0.149	0.63	0.481	-0.39	-0.167	0.556	1.173	0.962	1.008	1.091	1.02	0.841
0.143	0.625	0.481	-0.384	-0.169	0.554	1.173	0.959	1.007	1.093	1.018	0.838
0.143	0.626	0.483	-0.384	-0.171	0.555	1.177	0.962	1.01	1.091	1.018	0.837
0.141	0.626	0.485	-0.383	-0.172	0.556	1.181	0.966	1.014	1.095	1.018	0.836
0.142	0.623	0.48	-0.382	-0.169	0.552	1.185	0.968	1.012	1.095	1.016	0.832
0.128	0.617	0.489	-0.372	-0.18	0.553	1.182	0.966	1.01	1.095	1.015	0.828
0.154	0.615	0.461	-0.384	-0.153	0.537	1.175	0.961	1.006	1.091	1.009	0.821
0.165	0.612	0.447	-0.388	-0.141	0.529	1.177	0.96	1.004	1.087	1.004	0.816
0.102	0.607	0.505	-0.354	-0.202	0.556	1.202	0.983	1.028	1.112	1.026	0.835
0.093	0.609	0.515	-0.35	-0.211	0.562	1.212	0.993	1.038	1.121	1.035	0.84
0.111	0.603	0.492	-0.356	-0.191	0.548	1.202	0.986	1.031	1.113	1.026	0.83
0.108	0.597	0.489	-0.352	-0.191	0.543	1.19	0.978	1.03	1.113	1.026	0.829
0.121	0.612	0.49	-0.366	-0.184	0.551	1.19	0.978	1.034	1.119	1.03	0.831
0.124	0.616	0.491	-0.37	-0.183	0.554	1.202	0.99	1.042	1.127	1.036	0.835
0.103	0.591	0.487	-0.347	-0.192	0.539	1.191	0.981	1.034	1.118	1.028	0.823
0.094	0.581	0.487	-0.337	-0.197	0.534	1.183	0.978	1.031	1.115	1.025	0.818
0.093	0.585	0.492	-0.339	-0.199	0.538	1.185	0.982	1.038	1.12	1.028	0.821
0.098	0.595	0.497	-0.346	-0.2	0.546	1.19	0.988	1.046	1.127	1.034	0.824
0.107	0.612	0.504	-0.359	-0.198	0.558	1.203	0.997	1.056	1.139	1.045	0.83
0.096	0.605	0.509	-0.35	-0.206	0.557	1.197	0.992	1.054	1.137	1.042	0.827
0.084	0.593	0.508	-0.338	-0.212	0.55	1.195	0.99	1.05	1.132	1.038	0.821
0.082	0.591	0.508	-0.336	-0.213	0.549	1.21	0.995	1.054	1.137	1.041	0.821
0.082	0.595	0.513	-0.338	-0.215	0.554	1.22	1	1.06	1.141	1.046	0.823
0.079	0.594	0.515	-0.336	-0.218	0.554	1.226	1.002	1.06	1.141	1.048	0.821
0.09	0.602	0.512	-0.346	-0.211	0.557	1.23	1.006	1.065	1.148	1.051	0.822
0.129	0.646	0.518	-0.387	-0.195	0.583	1.248	1.022	1.085	1.169	1.071	0.839
0.126	0.647	0.522	-0.386	-0.199	0.586	1.248	1.022	1.089	1.177	1.076	0.844
0.102	0.618	0.516	-0.359	-0.207	0.567	1.232	1.013	1.079	1.168	1.066	0.831
0.103	0.618	0.514	-0.36	-0.205	0.566	1.236	1.018	1.081	1.169	1.067	0.827
0.1	0.614	0.514	-0.356	-0.207	0.565	1.234	1.018	1.083	1.172	1.069	0.827
0.098	0.607	0.508	-0.352	-0.205	0.558	1.232	1.016	1.084	1.173	1.067	0.826
0.095	0.606	0.51	-0.35	-0.208	0.558	1.234	1.017	1.087	1.173	1.067	0.824
0.087	0.603	0.515	-0.345	-0.214	0.559	1.236	1.018	1.087	1.173	1.068	0.821
0.082	0.597	0.515	-0.339	-0.216	0.556	1.242	1.02	1.087	1.173	1.067	0.819
0.083	0.599	0.515	-0.341	-0.216	0.557	1.241	1.021	1.091	1.176	1.07	0.818
0.083	0.597	0.514	-0.34	-0.215	0.556	1.236	1.02	1.093	1.179	1.071	0.816
0.077	0.592	0.514	-0.335	-0.218	0.553	1.23	1.019	1.091	1.177	1.071	0.814
0.082	0.594	0.513	-0.338	-0.216	0.553	1.232	1.02	1.093	1.181	1.073	0.812
0.085	0.6	0.515	-0.342	-0.215	0.557	1.232	1.021	1.097	1.184	1.075	0.814
0.077	0.601	0.524	-0.339	-0.224	0.563	1.23	1.018	1.097	1.185	1.073	0.81
0.071	0.6	0.528	-0.335	-0.229	0.565	1.229	1.017	1.099	1.189	1.077	0.808
0.066	0.597	0.531	-0.331	-0.233	0.565	1.229	1.018	1.099	1.188	1.071	0.801
0.066	0.597	0.531	-0.331	-0.233	0.565	1.231	1.02	1.101	1.188	1.063	0.791
0.069	0.6	0.531	-0.334	-0.231	0.566	1.236	1.025	1.113	1.203	1.089	0.81
0.06	0.593	0.533	-0.326	-0.237	0.564	1.232	1.024	1.117	1.208	1.095	0.812
0.077	0.614	0.537	-0.345	-0.23	0.576	1.234	1.03	1.127	1.218	1.097	0.811
0.093	0.618	0.524	-0.355	-0.215	0.572	1.246	1.044	1.146	1.238	1.115	0.827
0.082	0.597	0.515	-0.339	-0.217	0.556	1.242	1.045	1.149	1.238	1.114	0.818
0.08	0.607	0.526	-0.343	-0.223	0.567	1.244	1.048	1.152	1.242	1.115	0.814
0.075	0.602	0.526	-0.339	-0.226	0.565	1.25	1.054	1.159	1.249	1.119	0.815
0.076	0.598	0.521	-0.337	-0.223	0.559	1.25	1.053	1.163	1.254	1.121	0.815
0.069	0.593	0.523	-0.33	-0.228	0.558	1.251	1.052	1.165	1.256	1.123	0.81
0.048	0.57	0.522	-0.308	-0.237	0.546	1.262	1.055	1.163	1.25	1.115	0.799
0.037	0.559	0.523	-0.298	-0.243	0.541	1.276	1.056	1.163	1.248	1.112	0.793
0.045	0.574	0.529	-0.309	-0.242	0.551	1.282	1.065	1.177	1.261	1.121	0.796
0.053	0.591	0.537	-0.322	-0.242	0.564	1.282	1.071	1.192	1.276	1.133	0.805
0.055	0.6	0.545	-0.328	-0.245	0.573	1.277	1.071	1.201	1.288	1.142	0.807
0.064	0.612	0.549	-0.338	-0.243	0.581	1.282	1.078	1.211	1.298	1.151	0.812
0.045	0.598	0.552	-0.322	-0.254	0.576	1.278	1.077	1.211	1.296	1.15	0.806
0.037	0.596	0.558	-0.316	-0.26	0.577	1.274	1.075	1.213	1.297	1.149	0.801
0.038	0.609	0.57	-0.323	-0.266	0.59	1.282	1.085	1.226	1.31	1.159	0.809
0.035	0.608	0.573	-0.322	-0.269	0.591	1.283	1.087	1.232	1.316	1.161	0.808
0.051	0.617	0.565	-0.334	-0.257	0.591	1.283	1.089	1.232	1.317	1.163	0.806
0.056	0.614	0.557	-0.335	-0.251	0.586	1.283	1.092	1.236	1.321	1.163	0.802
0.058	0.606	0.547	-0.332	-0.244	0.577	1.286	1.097	1.245	1.329	1.171	0.805
0.059	0.606	0.547	-0.332	-0.244	0.577	1.286	1.099	1.254	1.337	1.177	0.806
0.052	0.608	0.556	-0.33	-0.252	0.582	1.28	1.097	1.254	1.336	1.171	0.804
0.046	0.607	0.56	-0.326	-0.257	0.584	1.281	1.103	1.26	1.344	1.179	0.804
0.043	0.606	0.562	-0.325	-0.26	0.585	1.282	1.105	1.27	1.355	1.189	0.801
0.04	0.608	0.568	-0.324	-0.264	0.589	1.28	1.104	1.272	1.357	1.19	0.801
0.039	0.608	0.569	-0.323	-0.265	0.589	1.278	1.102	1.277	1.361	1.191	0.795
0.036	0.607	0.571	-0.321	-0.268	0.589	1.276	1.103	1.283	1.366	1.196	0.797
0.038	0.61	0.571	-0.324	-0.266	0.591	1.284	1.112	1.287	1.365	1.19	0.79
0.038	0.598	0.559	-0.318	-0.261	0.579	1.292	1.119	1.299	1.379	1.199	0.787
0.032	0.596	0.565	-0.314	-0.267	0.581	1.29	1.117	1.308	1.399	1.22	0.801
0.04	0.628	0.589	-0.334	-0.275	0.609	1.288	1.117	1.311	1.395	1.216	0.79
0.039	0.635	0.597	-0.337	-0.279	0.617	1.288	1.119	1.315	1.397	1.216	0.783
0.033	0.63	0.598	-0.332	-0.282	0.615	1.292	1.125	1.321	1.403	1.219	0.783
0.022	0.622	0.6	-0.322	-0.288	0.611	1.294	1.126	1.325	1.405	1.218	0.776
0.025	0.626	0.602	-0.325	-0.288	0.615	1.298	1.128	1.331	1.413	1.224	0.777
0.042	0.651	0.609	-0.346	-0.283	0.63	1.314	1.141	1.347	1.429	1.236	0.783
0.037	0.647	0.611	-0.342	-0.287	0.629	1.319	1.147	1.355	1.435	1.241	0.78
0.027	0.638	0.612	-0.333	-0.292	0.625	1.323	1.152	1.361	1.438	1.242	0.776
0.021	0.635	0.615	-0.328	-0.296	0.625	1.327	1.157	1.367	1.445	1.244	0.775
0.015	0.633	0.618	-0.324	-0.301	0.625	1.326	1.158	1.372	1.45	1.248	0.772
0.015	0.635	0.621	-0.325	-0.302	0.628	1.331	1.163	1.381	1.456	1.252	0.771
0.015	0.633	0.618	-0.324	-0.301	0.625	1.329	1.163	1.383	1.458	1.253	0.767
0.011	0.627	0.617	-0.319	-0.303	0.622	1.329	1.165	1.387	1.462	1.254	0.764
0.007	0.627	0.62	-0.317	-0.306	0.624	1.335	1.173	1.398	1.47	1.26	0.765
0.004	0.629	0.624	-0.317	-0.309	0.627	1.344	1.181	1.409	1.482	1.266	0.767
0.005	0.63	0.625	-0.317	-0.31	0.627	1.345	1.186	1.414	1.486	1.27	0.768
0.004	0.635	0.631	-0.319	-0.313	0.633	1.347	1.188	1.419	1.492	1.276	0.765
-0.001	0.641	0.642	-0.32	-0.321	0.641	1.349	1.193	1.429	1.5	1.284	0.767
0.004	0.644	0.64	-0.324	-0.318	0.642	1.345	1.189	1.432	1.504	1.289	0.767
0.009	0.643	0.634	-0.326	-0.312	0.639	1.342	1.181	1.431	1.507	1.288	0.762
0.011	0.647	0.636	-0.329	-0.312	0.642	1.346	1.183	1.436	1.512	1.29	0.763
0.011	0.65	0.639	-0.331	-0.314	0.645	1.353	1.194	1.446	1.522	1.298	0.765
0.011	0.654	0.643	-0.332	-0.316	0.649	1.36	1.2	1.454	1.532	1.306	0.766
0.011	0.658	0.648	-0.334	-0.319	0.653	1.362	1.199	1.46	1.538	1.312	0.766
0.011	0.662	0.651	-0.337	-0.32	0.657	1.369	1.206	1.468	1.546	1.317	0.767
0.008	0.666	0.658	-0.337	-0.325	0.662	1.379	1.215	1.478	1.554	1.323	0.769
0.007	0.67	0.662	-0.339	-0.328	0.666	1.389	1.226	1.487	1.562	1.327	0.772
0.011	0.678	0.667	-0.344	-0.328	0.672	1.396	1.233	1.495	1.57	1.333	0.775
-0.006	0.659	0.665	-0.326	-0.336	0.662	1.391	1.232	1.496	1.569	1.333	0.769
-0.029	0.621	0.65	-0.296	-0.339	0.635	1.377	1.222	1.488	1.561	1.324	0.758
-0.034	0.608	0.641	-0.286	-0.338	0.625	1.353	1.206	1.48	1.557	1.321	0.752
-0.025	0.626	0.65	-0.3	-0.337	0.638	1.359	1.212	1.491	1.568	1.333	0.758
-0.012	0.65	0.662	-0.319	-0.337	0.656	1.377	1.224	1.508	1.584	1.345	0.766
-0.011	0.656	0.668	-0.323	-0.339	0.662	1.383	1.23	1.517	1.592	1.352	0.771
-0.013	0.656	0.67	-0.322	-0.342	0.664	1.389	1.234	1.524	1.601	1.366	0.778
-0.012	0.654	0.667	-0.321	-0.339	0.661	1.389	1.236	1.53	1.61	1.375	0.778
-0.011	0.654	0.665	-0.322	-0.338	0.66	1.389	1.239	1.534	1.613	1.371	0.781
-0.013	0.665	0.677	-0.326	-0.344	0.671	1.391	1.24	1.541	1.62	1.379	0.787
-0.004	0.67	0.675	-0.333	-0.339	0.673	1.395	1.244	1.546	1.625	1.386	0.789
-0.006	0.67	0.677	-0.332	-0.341	0.674	1.398	1.248	1.552	1.631	1.394	0.794
-0.001	0.677	0.679	-0.338	-0.34	0.678	1.401	1.25	1.556	1.635	1.402	0.796
0.003	0.683	0.68	-0.343	-0.339	0.682	1.403	1.252	1.56	1.641	1.409	0.802
0	0.683	0.683	-0.342	-0.341	0.684	1.403	1.251	1.562	1.645	1.413	0.804
-0.002	0.686	0.689	-0.342	-0.344	0.688	1.409	1.254	1.566	1.65	1.42	0.81
0.013	0.697	0.683	-0.354	-0.334	0.69	1.407	1.255	1.569	1.654	1.427	0.816
0.065	0.701	0.636	-0.383	-0.286	0.669	1.385	1.238	1.554	1.64	1.413	0.8
0.008	0.691	0.682	-0.349	-0.337	0.687	1.399	1.252	1.569	1.657	1.435	0.822
-0.041	0.681	0.722	-0.32	-0.381	0.702	1.407	1.26	1.583	1.67	1.45	0.839
-0.011	0.675	0.686	-0.333	-0.348	0.681	1.389	1.244	1.565	1.654	1.437	0.828
-0.004	0.681	0.686	-0.338	-0.344	0.684	1.399	1.252	1.565	1.657	1.443	0.835
-0.002	0.676	0.678	-0.337	-0.339	0.677	1.397	1.25	1.563	1.655	1.444	0.837
-0.012	0.665	0.678	-0.327	-0.344	0.672	1.391	1.244	1.556	1.651	1.444	0.839
0.004	0.688	0.684	-0.345	-0.34	0.686	1.395	1.246	1.56	1.656	1.452	0.849
0.024	0.708	0.684	-0.365	-0.33	0.696	1.4	1.25	1.563	1.662	1.462	0.861
0.02	0.705	0.684	-0.362	-0.332	0.695	1.399	1.25	1.56	1.66	1.466	0.866
0.019	0.701	0.681	-0.359	-0.331	0.691	1.389	1.244	1.554	1.654	1.462	0.87
0.021	0.702	0.681	-0.361	-0.33	0.692	1.381	1.236	1.544	1.648	1.46	0.874
0.023	0.705	0.682	-0.364	-0.329	0.694	1.371	1.224	1.532	1.639	1.456	0.875
0.023	0.705	0.682	-0.363	-0.329	0.694	1.365	1.215	1.521	1.629	1.454	0.878
0.025	0.704	0.678	-0.364	-0.326	0.691	1.356	1.204	1.508	1.619	1.452	0.88
0.031	0.708	0.677	-0.369	-0.323	0.693	1.346	1.192	1.496	1.609	1.447	0.885
0.035	0.717	0.682	-0.376	-0.323	0.7	1.341	1.187	1.487	1.602	1.446	0.89
0.042	0.723	0.681	-0.382	-0.32	0.703	1.335	1.181	1.479	1.597	1.445	0.897
0.048	0.725	0.677	-0.387	-0.314	0.702	1.333	1.179	1.47	1.591	1.443	0.906
0.05	0.728	0.677	-0.389	-0.313	0.703	1.327	1.171	1.459	1.581	1.439	0.913
0.051	0.73	0.678	-0.39	-0.313	0.705	1.317	1.158	1.444	1.567	1.433	0.915
0.053	0.731	0.677	-0.392	-0.311	0.704	1.31	1.149	1.431	1.559	1.431	0.921
0.062	0.731	0.668	-0.397	-0.303	0.7	1.304	1.141	1.419	1.55	1.427	0.928
0.068	0.732	0.664	-0.4	-0.298	0.699	1.298	1.133	1.407	1.536	1.422	0.936
0.071	0.738	0.666	-0.404	-0.297	0.702	1.294	1.123	1.393	1.526	1.417	0.94
0.081	0.742	0.661	-0.411	-0.29	0.702	1.284	1.115	1.379	1.514	1.413	0.946
0.087	0.745	0.657	-0.415	-0.284	0.701	1.276	1.107	1.367	1.502	1.407	0.954
0.088	0.743	0.654	-0.415	-0.283	0.699	1.263	1.094	1.347	1.486	1.395	0.953
0.092	0.745	0.652	-0.417	-0.281	0.699	1.252	1.083	1.329	1.47	1.385	0.954
0.093	0.746	0.652	-0.419	-0.28	0.7	1.246	1.073	1.315	1.457	1.381	0.964
0.097	0.741	0.644	-0.418	-0.274	0.693	1.232	1.062	1.297	1.433	1.362	0.963
0.134	0.743	0.609	-0.439	-0.237	0.676	1.204	1.037	1.273	1.411	1.34	0.948
0.137	0.747	0.61	-0.442	-0.236	0.678	1.19	1.02	1.26	1.409	1.347	0.966
0.086	0.745	0.658	-0.415	-0.286	0.702	1.2	1.032	1.262	1.41	1.351	0.985
0.09	0.742	0.651	-0.416	-0.281	0.697	1.192	1.022	1.246	1.391	1.337	0.983
0.117	0.748	0.631	-0.432	-0.258	0.69	1.179	1.01	1.228	1.371	1.323	0.982
0.117	0.745	0.628	-0.43	-0.256	0.687	1.178	1.004	1.212	1.354	1.309	0.981
0.116	0.738	0.622	-0.426	-0.253	0.679	1.181	0.995	1.194	1.335	1.296	0.979
0.115	0.731	0.616	-0.422	-0.251	0.673	1.177	0.985	1.176	1.317	1.282	0.978
0.117	0.729	0.611	-0.422	-0.246	0.67	1.178	0.978	1.161	1.304	1.27	0.978
0.133	0.745	0.612	-0.438	-0.239	0.678	1.177	0.977	1.152	1.295	1.264	0.983
0.133	0.733	0.6	-0.432	-0.234	0.666	1.163	0.967	1.14	1.28	1.254	0.983
0.134	0.717	0.584	-0.425	-0.225	0.651	1.159	0.961	1.129	1.268	1.243	0.984
0.125	0.701	0.576	-0.412	-0.225	0.638	1.143	0.946	1.109	1.25	1.226	0.98
0.116	0.691	0.576	-0.403	-0.23	0.633	1.133	0.934	1.091	1.23	1.21	0.974
0.14	0.717	0.577	-0.428	-0.218	0.647	1.135	0.934	1.087	1.226	1.206	0.979
0.161	0.728	0.567	-0.444	-0.203	0.647	1.135	0.934	1.079	1.216	1.199	0.982
0.162	0.715	0.553	-0.438	-0.196	0.634	1.135	0.933	1.066	1.2	1.185	0.978
0.153	0.698	0.544	-0.424	-0.196	0.621	1.128	0.924	1.052	1.185	1.17	0.972
0.16	0.697	0.537	-0.428	-0.189	0.618	1.127	0.923	1.044	1.176	1.161	0.972
0.171	0.704	0.532	-0.438	-0.18	0.619	1.125	0.923	1.039	1.171	1.157	0.975
0.17	0.699	0.528	-0.434	-0.179	0.614	1.123	0.919	1.032	1.161	1.149	0.973
0.172	0.697	0.524	-0.434	-0.176	0.611	1.116	0.911	1.021	1.149	1.139	0.971
0.172	0.694	0.52	-0.432	-0.174	0.607	1.111	0.907	1.011	1.136	1.129	0.969
0.172	0.685	0.513	-0.428	-0.17	0.599	1.109	0.906	1.002	1.125	1.119	0.967
0.18	0.684	0.504	-0.432	-0.163	0.595	1.107	0.906	0.993	1.115	1.109	0.964
0.182	0.68	0.498	-0.431	-0.158	0.59	1.107	0.906	0.987	1.105	1.1	0.962
0.178	0.678	0.499	-0.428	-0.161	0.589	1.106	0.903	0.98	1.098	1.091	0.958
0.178	0.676	0.498	-0.426	-0.16	0.587	1.106	0.902	0.974	1.089	1.085	0.955
0.178	0.669	0.491	-0.423	-0.157	0.581	1.103	0.897	0.966	1.082	1.075	0.951
0.174	0.664	0.489	-0.419	-0.158	0.577	1.101	0.892	0.959	1.075	1.068	0.947
0.173	0.655	0.482	-0.414	-0.154	0.569	1.097	0.886	0.95	1.067	1.061	0.945
0.174	0.652	0.478	-0.413	-0.152	0.566	1.096	0.884	0.945	1.062	1.056	0.945
0.17	0.65	0.48	-0.409	-0.155	0.565	1.093	0.883	0.94	1.058	1.052	0.942
0.17	0.644	0.474	-0.406	-0.152	0.559	1.089	0.874	0.928	1.048	1.04	0.937
0.173	0.636	0.464	-0.405	-0.145	0.55	1.087	0.865	0.918	1.038	1.032	0.93
0.175	0.632	0.457	-0.404	-0.141	0.545	1.085	0.863	0.912	1.032	1.024	0.928
0.173	0.628	0.456	-0.401	-0.141	0.542	1.087	0.864	0.906	1.026	1.018	0.926
0.174	0.628	0.454	-0.402	-0.14	0.541	1.09	0.867	0.906	1.022	1.016	0.923
0.176	0.624	0.448	-0.4	-0.136	0.536	1.085	0.865	0.901	1.015	1.011	0.921
0.179	0.623	0.444	-0.401	-0.133	0.533	1.085	0.866	0.898	1.01	1.008	0.919
0.18	0.625	0.445	-0.403	-0.133	0.535	1.079	0.862	0.893	1.005	1.002	0.919
0.183	0.624	0.442	-0.403	-0.13	0.533	1.065	0.849	0.885	0.999	0.998	0.914
0.202	0.642	0.441	-0.421	-0.12	0.542	1.065	0.85	0.882	0.995	0.994	0.916
0.195	0.634	0.44	-0.414	-0.122	0.537	1.052	0.841	0.866	0.981	0.981	0.91
0.186	0.623	0.437	-0.405	-0.125	0.53	1.041	0.835	0.867	0.984	0.987	0.906
0.189	0.626	0.438	-0.407	-0.124	0.532	1.046	0.837	0.868	0.985	0.987	0.909
0.18	0.614	0.433	-0.397	-0.127	0.524	1.05	0.833	0.859	0.976	0.979	0.906
0.18	0.616	0.435	-0.398	-0.128	0.525	1.044	0.83	0.856	0.973	0.978	0.906
0.181	0.623	0.442	-0.402	-0.13	0.532	1.032	0.823	0.853	0.969	0.975	0.904
0.181	0.625	0.444	-0.403	-0.132	0.534	1.027	0.819	0.851	0.966	0.973	0.901
0.183	0.608	0.424	-0.395	-0.12	0.516	1.032	0.824	0.853	0.97	0.975	0.906
0.191	0.599	0.407	-0.395	-0.108	0.503	1.041	0.834	0.864	0.981	0.986	0.92
0.185	0.602	0.415	-0.393	-0.115	0.508	1.038	0.83	0.856	0.975	0.979	0.916
0.175	0.594	0.418	-0.384	-0.122	0.506	1.027	0.819	0.845	0.966	0.968	0.909
0.178	0.595	0.416	-0.386	-0.119	0.505	1.016	0.813	0.843	0.963	0.969	0.906
0.186	0.603	0.415	-0.394	-0.115	0.509	1.018	0.815	0.844	0.965	0.971	0.907
0.185	0.598	0.412	-0.392	-0.114	0.505	1.01	0.811	0.842	0.962	0.971	0.908
0.196	0.617	0.42	-0.406	-0.113	0.518	1.015	0.814	0.842	0.962	0.97	0.91
0.22	0.649	0.429	-0.434	-0.104	0.539	1.036	0.827	0.853	0.972	0.981	0.918
0.207	0.633	0.426	-0.42	-0.11	0.53	1.022	0.821	0.843	0.961	0.974	0.91
0.193	0.625	0.432	-0.408	-0.119	0.529	1.012	0.81	0.834	0.954	0.965	0.903
0.201	0.632	0.431	-0.416	-0.116	0.532	1.018	0.814	0.839	0.958	0.968	0.906
0.199	0.621	0.421	-0.409	-0.112	0.521	1.019	0.815	0.839	0.957	0.969	0.906
0.199	0.612	0.413	-0.405	-0.107	0.512	1.02	0.818	0.842	0.96	0.972	0.909
0.202	0.611	0.409	-0.406	-0.104	0.51	1.021	0.82	0.842	0.959	0.972	0.909
0.202	0.613	0.411	-0.406	-0.105	0.512	1.02	0.82	0.841	0.96	0.972	0.909
0.206	0.618	0.412	-0.412	-0.103	0.515	1.018	0.82	0.841	0.961	0.971	0.91
0.209	0.622	0.413	-0.415	-0.102	0.518	1.016	0.821	0.843	0.962	0.973	0.912
0.208	0.622	0.414	-0.414	-0.103	0.518	1.014	0.822	0.845	0.964	0.973	0.913
0.203	0.624	0.42	-0.413	-0.108	0.522	1.01	0.818	0.843	0.962	0.971	0.912
0.208	0.622	0.414	-0.414	-0.103	0.518	1.006	0.815	0.84	0.961	0.969	0.912
0.208	0.619	0.41	-0.413	-0.101	0.514	1.005	0.812	0.838	0.959	0.967	0.91
0.205	0.618	0.412	-0.411	-0.103	0.515	1.006	0.817	0.84	0.959	0.968	0.91
0.209	0.619	0.41	-0.414	-0.1	0.514	1.011	0.819	0.842	0.962	0.969	0.912
0.211	0.625	0.413	-0.417	-0.101	0.519	1.014	0.823	0.845	0.966	0.972	0.915
0.21	0.627	0.417	-0.418	-0.103	0.522	1.014	0.824	0.846	0.967	0.973	0.914
0.205	0.622	0.416	-0.413	-0.105	0.519	1.004	0.81	0.84	0.96	0.968	0.908
0.206	0.624	0.418	-0.415	-0.106	0.521	1.002	0.813	0.842	0.963	0.968	0.91
0.21	0.629	0.419	-0.419	-0.104	0.524	1.008	0.819	0.847	0.967	0.973	0.916
0.224	0.641	0.417	-0.432	-0.097	0.529	1.018	0.828	0.852	0.972	0.977	0.919
0.222	0.638	0.416	-0.43	-0.097	0.527	1.018	0.83	0.852	0.971	0.976	0.918
0.208	0.614	0.406	-0.411	-0.099	0.51	1.004	0.816	0.84	0.96	0.966	0.914
0.197	0.603	0.406	-0.399	-0.105	0.504	0.992	0.807	0.833	0.954	0.962	0.906
0.189	0.602	0.412	-0.395	-0.112	0.507	0.987	0.803	0.836	0.958	0.965	0.91
0.203	0.613	0.41	-0.407	-0.103	0.511	0.998	0.814	0.843	0.966	0.976	0.92
0.211	0.604	0.393	-0.407	-0.09	0.498	1.006	0.821	0.839	0.961	0.974	0.914
0.213	0.584	0.371	-0.398	-0.079	0.478	1.004	0.817	0.829	0.95	0.96	0.91
0.21	0.582	0.371	-0.396	-0.081	0.476	1.005	0.816	0.828	0.951	0.963	0.912
0.207	0.596	0.389	-0.401	-0.091	0.492	1	0.808	0.824	0.948	0.957	0.904
0.206	0.613	0.407	-0.409	-0.101	0.51	0.99	0.798	0.816	0.94	0.948	0.894
0.203	0.617	0.413	-0.409	-0.105	0.515	0.991	0.798	0.816	0.941	0.95	0.894
0.203	0.619	0.416	-0.41	-0.107	0.518	0.995	0.802	0.818	0.943	0.951	0.894
0.203	0.616	0.414	-0.409	-0.106	0.515	0.996	0.8	0.819	0.944	0.953	0.895
0.202	0.612	0.41	-0.406	-0.104	0.511	0.995	0.799	0.816	0.939	0.942	0.89
0.204	0.613	0.408	-0.408	-0.102	0.51	1.001	0.806	0.817	0.932	0.934	0.885
0.204	0.608	0.403	-0.405	-0.1	0.505	1.004	0.808	0.826	0.95	0.96	0.903
0.202	0.59	0.388	-0.396	-0.093	0.489	1.009	0.81	0.833	0.961	0.974	0.914
0.204	0.6	0.395	-0.402	-0.096	0.497	1.012	0.811	0.829	0.954	0.961	0.906
0.203	0.623	0.42	-0.412	-0.109	0.522	1.008	0.806	0.823	0.948	0.958	0.899
0.208	0.631	0.423	-0.419	-0.108	0.528	1.01	0.808	0.824	0.949	0.959	0.899
0.201	0.629	0.429	-0.415	-0.114	0.529	1.005	0.805	0.82	0.945	0.954	0.895
0.196	0.625	0.429	-0.41	-0.117	0.528	0.996	0.801	0.817	0.938	0.949	0.891
0.2	0.625	0.425	-0.412	-0.113	0.525	0.997	0.801	0.82	0.942	0.952	0.893
0.198	0.625	0.426	-0.411	-0.114	0.525	0.999	0.802	0.822	0.944	0.954	0.894
0.204	0.63	0.426	-0.416	-0.111	0.528	1	0.804	0.824	0.947	0.955	0.896
0.204	0.631	0.427	-0.418	-0.112	0.529	1.006	0.808	0.828	0.949	0.957	0.897
0.208	0.636	0.428	-0.422	-0.11	0.532	1.008	0.81	0.83	0.95	0.96	0.899
0.209	0.637	0.428	-0.422	-0.11	0.532	1.009	0.811	0.832	0.954	0.962	0.902
0.195	0.621	0.426	-0.408	-0.116	0.524	1.004	0.807	0.827	0.949	0.956	0.896
0.185	0.613	0.427	-0.399	-0.121	0.52	1.002	0.806	0.825	0.946	0.954	0.893
0.191	0.622	0.431	-0.406	-0.12	0.527	1.008	0.815	0.831	0.952	0.96	0.899
0.197	0.63	0.434	-0.413	-0.118	0.532	1.016	0.82	0.835	0.958	0.965	0.903
0.198	0.631	0.433	-0.414	-0.118	0.532	1.016	0.82	0.836	0.96	0.965	0.903
0.201	0.63	0.429	-0.415	-0.115	0.53	1.008	0.816	0.835	0.958	0.963	0.903
0.206	0.633	0.427	-0.419	-0.111	0.53	0.997	0.809	0.835	0.959	0.964	0.904
0.21	0.638	0.428	-0.424	-0.11	0.534	0.997	0.811	0.839	0.963	0.969	0.907
0.209	0.642	0.432	-0.425	-0.112	0.537	1.002	0.817	0.845	0.967	0.973	0.909
0.208	0.64	0.432	-0.424	-0.113	0.536	1.004	0.819	0.844	0.966	0.972	0.909
0.201	0.633	0.433	-0.417	-0.116	0.533	1.004	0.819	0.843	0.963	0.969	0.907
0.202	0.629	0.427	-0.415	-0.113	0.528	1.004	0.816	0.84	0.962	0.967	0.905
0.203	0.629	0.427	-0.416	-0.113	0.529	1.01	0.813	0.837	0.957	0.964	0.903
0.193	0.622	0.429	-0.407	-0.118	0.526	1.019	0.815	0.834	0.952	0.958	0.897
0.195	0.622	0.426	-0.408	-0.116	0.524	1.031	0.822	0.834	0.952	0.958	0.898
0.199	0.627	0.429	-0.413	-0.116	0.529	1.038	0.83	0.84	0.955	0.963	0.902
0.201	0.626	0.426	-0.413	-0.113	0.526	1.038	0.828	0.839	0.955	0.962	0.902
0.201	0.627	0.426	-0.413	-0.113	0.527	1.04	0.828	0.839	0.956	0.964	0.903
0.191	0.616	0.424	-0.403	-0.117	0.52	1.032	0.824	0.835	0.952	0.961	0.901
0.197	0.621	0.423	-0.408	-0.114	0.522	1.029	0.82	0.834	0.951	0.96	0.901
0.202	0.628	0.426	-0.414	-0.113	0.527	1.035	0.822	0.837	0.952	0.962	0.902
0.191	0.617	0.426	-0.403	-0.118	0.521	1.023	0.812	0.829	0.946	0.955	0.897
0.191	0.612	0.421	-0.401	-0.116	0.517	1.022	0.812	0.827	0.944	0.954	0.895
0.19	0.611	0.421	-0.4	-0.116	0.516	1.027	0.817	0.83	0.945	0.954	0.896
0.196	0.619	0.423	-0.407	-0.114	0.521	1.028	0.818	0.83	0.943	0.952	0.896
0.202	0.625	0.424	-0.413	-0.112	0.525	1.029	0.818	0.831	0.945	0.954	0.896
0.201	0.625	0.424	-0.412	-0.112	0.525	1.028	0.817	0.832	0.947	0.957	0.901
0.205	0.626	0.42	-0.415	-0.108	0.524	1.031	0.823	0.835	0.946	0.959	0.901
0.203	0.627	0.425	-0.415	-0.111	0.526	1.033	0.824	0.836	0.946	0.956	0.898
0.203	0.629	0.426	-0.415	-0.112	0.528	1.034	0.825	0.833	0.946	0.956	0.899
0.201	0.625	0.424	-0.413	-0.112	0.524	1.03	0.82	0.83	0.943	0.955	0.895
0.202	0.625	0.424	-0.413	-0.111	0.525	1.034	0.822	0.832	0.945	0.955	0.897
0.198	0.624	0.425	-0.41	-0.114	0.524	1.035	0.825	0.832	0.945	0.956	0.896
0.179	0.609	0.43	-0.394	-0.126	0.52	1.018	0.811	0.822	0.935	0.943	0.887
0.176	0.608	0.431	-0.392	-0.127	0.519	1.016	0.809	0.818	0.931	0.939	0.883
0.181	0.617	0.435	-0.399	-0.127	0.526	1.02	0.811	0.823	0.936	0.945	0.888
0.194	0.641	0.448	-0.417	-0.127	0.545	1.026	0.817	0.831	0.945	0.953	0.896
0.199	0.649	0.45	-0.423	-0.126	0.549	1.026	0.812	0.828	0.943	0.952	0.893
0.183	0.621	0.438	-0.402	-0.128	0.53	1.009	0.796	0.813	0.93	0.938	0.881
0.185	0.625	0.441	-0.406	-0.128	0.533	1.018	0.805	0.816	0.93	0.94	0.882
0.182	0.621	0.44	-0.401	-0.129	0.53	1.024	0.811	0.818	0.932	0.94	0.882
0.172	0.613	0.44	-0.392	-0.134	0.526	1.03	0.816	0.82	0.933	0.939	0.883
0.199	0.642	0.444	-0.42	-0.122	0.543	1.048	0.828	0.832	0.946	0.951	0.893
0.204	0.646	0.442	-0.425	-0.118	0.544	1.054	0.829	0.835	0.95	0.952	0.892
0.192	0.637	0.446	-0.414	-0.127	0.541	1.052	0.828	0.833	0.946	0.948	0.889
0.184	0.627	0.443	-0.406	-0.129	0.535	1.042	0.823	0.826	0.94	0.943	0.884
0.175	0.614	0.439	-0.395	-0.132	0.526	1.04	0.819	0.82	0.938	0.938	0.88
0.183	0.621	0.438	-0.402	-0.127	0.529	1.05	0.825	0.825	0.942	0.941	0.883
0.179	0.62	0.441	-0.4	-0.131	0.53	1.041	0.821	0.822	0.938	0.94	0.881
0.166	0.605	0.439	-0.386	-0.136	0.522	1.035	0.819	0.82	0.935	0.937	0.878
0.166	0.602	0.435	-0.384	-0.135	0.519	1.04	0.822	0.822	0.936	0.936	0.878
0.173	0.612	0.438	-0.393	-0.133	0.525	1.038	0.819	0.818	0.935	0.936	0.879
0.173	0.615	0.442	-0.394	-0.134	0.528	1.036	0.817	0.816	0.935	0.935	0.876
0.17	0.617	0.447	-0.394	-0.139	0.532	1.036	0.814	0.813	0.931	0.931	0.872
0.171	0.615	0.444	-0.393	-0.136	0.529	1.038	0.818	0.813	0.928	0.929	0.871
0.167	0.603	0.435	-0.384	-0.135	0.519	1.038	0.814	0.808	0.922	0.923	0.866
0.16	0.593	0.433	-0.376	-0.137	0.513	1.043	0.814	0.804	0.917	0.917	0.861
0.156	0.582	0.426	-0.369	-0.136	0.504	1.05	0.816	0.802	0.912	0.912	0.856
0.16	0.584	0.424	-0.371	-0.133	0.504	1.05	0.81	0.795	0.907	0.906	0.859
0.163	0.592	0.43	-0.377	-0.134	0.511	1.046	0.811	0.801	0.913	0.913	0.861
0.158	0.585	0.427	-0.371	-0.135	0.506	1.039	0.808	0.802	0.912	0.913	0.859
0.15	0.58	0.43	-0.365	-0.14	0.505	1.038	0.805	0.796	0.905	0.904	0.855
0.158	0.581	0.422	-0.369	-0.133	0.502	1.037	0.806	0.798	0.907	0.906	0.856
0.162	0.58	0.418	-0.37	-0.129	0.499	1.04	0.809	0.799	0.907	0.906	0.859
0.187	0.581	0.394	-0.384	-0.103	0.488	1.034	0.802	0.793	0.902	0.897	0.853
0.204	0.578	0.373	-0.392	-0.085	0.476	1.03	0.802	0.785	0.892	0.889	0.848
0.146	0.575	0.429	-0.36	-0.142	0.502	1.052	0.825	0.801	0.905	0.897	0.853
0.136	0.577	0.441	-0.356	-0.152	0.509	1.059	0.827	0.812	0.923	0.917	0.867
0.157	0.574	0.417	-0.365	-0.131	0.496	1.052	0.821	0.804	0.915	0.91	0.863
0.153	0.573	0.42	-0.363	-0.134	0.496	1.05	0.819	0.801	0.909	0.902	0.856
0.169	0.582	0.412	-0.375	-0.122	0.497	1.049	0.816	0.803	0.912	0.908	0.864
0.164	0.569	0.405	-0.366	-0.12	0.487	1.042	0.811	0.799	0.907	0.902	0.861
0.155	0.557	0.402	-0.356	-0.123	0.48	1.036	0.807	0.795	0.902	0.899	0.853
0.149	0.555	0.406	-0.352	-0.128	0.48	1.038	0.806	0.795	0.9	0.898	0.85
0.143	0.549	0.405	-0.346	-0.131	0.477	1.036	0.805	0.793	0.899	0.897	0.851
0.174	0.581	0.406	-0.377	-0.117	0.494	1.05	0.815	0.806	0.911	0.91	0.862
0.182	0.59	0.408	-0.386	-0.113	0.499	1.056	0.819	0.809	0.912	0.912	0.864
0.165	0.572	0.406	-0.368	-0.121	0.489	1.05	0.817	0.803	0.906	0.904	0.859
0.17	0.576	0.406	-0.372	-0.118	0.491	1.059	0.822	0.806	0.907	0.906	0.859
0.163	0.562	0.4	-0.362	-0.118	0.481	1.054	0.816	0.8	0.901	0.9	0.853
0.154	0.547	0.393	-0.35	-0.119	0.47	1.048	0.813	0.795	0.899	0.896	0.853
0.158	0.55	0.393	-0.353	-0.118	0.472	1.052	0.814	0.796	0.896	0.894	0.849
0.163	0.553	0.391	-0.358	-0.114	0.472	1.057	0.819	0.798	0.901	0.896	0.852
0.169	0.556	0.388	-0.362	-0.11	0.472	1.062	0.826	0.805	0.907	0.901	0.86
0.165	0.551	0.386	-0.358	-0.111	0.469	1.064	0.826	0.804	0.905	0.9	0.857
0.164	0.547	0.383	-0.355	-0.11	0.466	1.065	0.828	0.804	0.907	0.902	0.86
0.169	0.555	0.387	-0.361	-0.109	0.471	1.069	0.829	0.804	0.908	0.903	0.86
0.17	0.559	0.39	-0.364	-0.11	0.474	1.071	0.833	0.805	0.908	0.902	0.859
0.165	0.557	0.393	-0.361	-0.114	0.475	1.071	0.832	0.804	0.908	0.9	0.858
0.168	0.555	0.387	-0.361	-0.11	0.471	1.067	0.831	0.802	0.907	0.9	0.859
0.164	0.549	0.385	-0.356	-0.111	0.467	1.068	0.832	0.804	0.908	0.901	0.858
0.161	0.541	0.38	-0.35	-0.11	0.461	1.062	0.826	0.795	0.9	0.894	0.853
0.155	0.538	0.383	-0.346	-0.114	0.461	1.054	0.823	0.789	0.893	0.889	0.85
0.153	0.537	0.384	-0.345	-0.116	0.461	1.05	0.818	0.788	0.89	0.887	0.848
0.153	0.523	0.37	-0.338	-0.108	0.448	1.056	0.824	0.795	0.898	0.895	0.856
0.165	0.53	0.365	-0.347	-0.101	0.448	1.058	0.83	0.799	0.901	0.898	0.858
0.166	0.547	0.381	-0.356	-0.107	0.465	1.052	0.826	0.796	0.899	0.898	0.859
0.186	0.55	0.364	-0.367	-0.089	0.457	1.038	0.814	0.788	0.893	0.89	0.852
0.233	0.556	0.323	-0.394	-0.045	0.44	1.022	0.801	0.774	0.879	0.878	0.839
0.167	0.562	0.395	-0.364	-0.115	0.478	1.042	0.826	0.798	0.903	0.902	0.864
0.14	0.563	0.423	-0.351	-0.141	0.493	1.05	0.833	0.807	0.912	0.911	0.873
0.172	0.556	0.384	-0.364	-0.105	0.47	1.04	0.822	0.795	0.902	0.9	0.863
0.159	0.535	0.377	-0.347	-0.109	0.457	1.038	0.82	0.795	0.904	0.902	0.865
0.162	0.526	0.364	-0.344	-0.102	0.446	1.036	0.819	0.793	0.901	0.902	0.861
0.162	0.539	0.378	-0.35	-0.108	0.459	1.04	0.822	0.795	0.901	0.897	0.862
0.167	0.546	0.379	-0.356	-0.106	0.463	1.04	0.82	0.793	0.901	0.897	0.864
0.171	0.545	0.376	-0.357	-0.102	0.461	1.038	0.819	0.791	0.9	0.897	0.862
0.169	0.543	0.376	-0.355	-0.103	0.46	1.034	0.814	0.789	0.899	0.895	0.859
0.178	0.554	0.376	-0.365	-0.099	0.465	1.028	0.81	0.791	0.902	0.898	0.862
0.185	0.564	0.379	-0.374	-0.097	0.471	1.013	0.805	0.791	0.905	0.901	0.865
0.191	0.57	0.379	-0.38	-0.094	0.474	1.005	0.804	0.794	0.907	0.907	0.868
0.191	0.566	0.374	-0.378	-0.092	0.47	0.989	0.797	0.788	0.902	0.9	0.864
0.182	0.558	0.376	-0.37	-0.097	0.468	0.975	0.782	0.779	0.894	0.892	0.857
0.18	0.56	0.381	-0.37	-0.1	0.47	0.978	0.784	0.781	0.895	0.896	0.861
0.176	0.556	0.38	-0.365	-0.102	0.468	0.993	0.79	0.783	0.896	0.896	0.859
0.174	0.555	0.382	-0.364	-0.104	0.469	1.003	0.794	0.783	0.896	0.894	0.858
0.17	0.55	0.38	-0.36	-0.105	0.465	1.01	0.793	0.779	0.892	0.89	0.855
0.167	0.546	0.38	-0.356	-0.106	0.464	1.022	0.797	0.776	0.89	0.888	0.851
0.171	0.555	0.385	-0.362	-0.107	0.47	1.019	0.799	0.781	0.895	0.894	0.855
0.172	0.561	0.389	-0.366	-0.108	0.475	1.014	0.799	0.787	0.899	0.899	0.858
0.173	0.564	0.391	-0.368	-0.108	0.477	1.016	0.803	0.791	0.903	0.9	0.86
0.176	0.571	0.395	-0.373	-0.11	0.483	1.022	0.805	0.793	0.904	0.903	0.861
0.169	0.559	0.391	-0.363	-0.111	0.475	1.007	0.793	0.783	0.896	0.894	0.854
0.161	0.546	0.386	-0.353	-0.113	0.466	0.992	0.778	0.771	0.887	0.884	0.847
0.172	0.559	0.387	-0.365	-0.107	0.473	1.004	0.78	0.773	0.887	0.886	0.849
0.175	0.557	0.382	-0.365	-0.103	0.469	1.003	0.778	0.77	0.885	0.882	0.849
0.175	0.558	0.384	-0.366	-0.104	0.471	1.006	0.782	0.772	0.887	0.882	0.851
0.183	0.569	0.386	-0.376	-0.102	0.477	1.01	0.787	0.777	0.892	0.887	0.856
0.183	0.571	0.388	-0.377	-0.102	0.479	1.008	0.786	0.778	0.89	0.888	0.856
0.182	0.576	0.393	-0.379	-0.105	0.484	1.006	0.783	0.778	0.889	0.888	0.855
0.188	0.579	0.391	-0.383	-0.102	0.485	1	0.78	0.776	0.889	0.89	0.861
0.193	0.579	0.386	-0.386	-0.097	0.482	0.996	0.78	0.772	0.879	0.878	0.852
0.186	0.579	0.393	-0.382	-0.103	0.486	0.986	0.77	0.768	0.884	0.882	0.85
0.186	0.586	0.4	-0.386	-0.106	0.492	0.98	0.767	0.771	0.891	0.893	0.861
0.186	0.586	0.4	-0.386	-0.107	0.493	0.978	0.769	0.769	0.887	0.887	0.856
0.176	0.581	0.405	-0.379	-0.114	0.493	0.971	0.762	0.765	0.885	0.887	0.855
0.187	0.594	0.406	-0.39	-0.11	0.5	0.974	0.766	0.772	0.889	0.89	0.86
0.206	0.616	0.41	-0.411	-0.102	0.513	0.984	0.774	0.78	0.897	0.899	0.868
0.204	0.614	0.409	-0.408	-0.103	0.512	0.979	0.771	0.778	0.896	0.897	0.866
0.196	0.607	0.411	-0.401	-0.108	0.509	0.97	0.764	0.774	0.891	0.892	0.863
0.195	0.608	0.412	-0.401	-0.109	0.51	0.969	0.763	0.775	0.894	0.895	0.863
0.197	0.609	0.411	-0.403	-0.107	0.51	0.972	0.765	0.778	0.898	0.897	0.864
0.197	0.609	0.412	-0.403	-0.107	0.51	0.974	0.766	0.779	0.898	0.898	0.866
0.189	0.581	0.392	-0.384	-0.102	0.486	0.975	0.767	0.781	0.902	0.904	0.87
0.183	0.571	0.388	-0.377	-0.102	0.479	0.974	0.763	0.779	0.901	0.902	0.87
0.184	0.593	0.409	-0.389	-0.112	0.501	0.967	0.757	0.771	0.894	0.895	0.863
0.183	0.598	0.415	-0.39	-0.116	0.506	0.963	0.756	0.769	0.89	0.892	0.858
0.18	0.599	0.418	-0.389	-0.119	0.508	0.961	0.757	0.77	0.889	0.891	0.857
0.179	0.602	0.422	-0.39	-0.122	0.512	0.959	0.755	0.77	0.892	0.893	0.859
0.182	0.602	0.419	-0.392	-0.118	0.51	0.958	0.753	0.77	0.893	0.891	0.858
0.19	0.608	0.417	-0.399	-0.114	0.513	0.964	0.759	0.771	0.894	0.893	0.86
0.191	0.608	0.417	-0.399	-0.113	0.512	0.965	0.762	0.774	0.896	0.893	0.863
0.186	0.602	0.415	-0.394	-0.115	0.509	0.962	0.762	0.77	0.891	0.889	0.86
0.193	0.606	0.413	-0.399	-0.111	0.509	0.965	0.765	0.771	0.891	0.889	0.86
0.196	0.61	0.414	-0.403	-0.109	0.512	0.969	0.766	0.776	0.895	0.893	0.864
0.191	0.613	0.421	-0.402	-0.116	0.517	0.967	0.766	0.777	0.897	0.895	0.864
0.192	0.614	0.421	-0.403	-0.115	0.518	0.972	0.771	0.781	0.901	0.898	0.867
0.196	0.616	0.42	-0.405	-0.112	0.517	0.975	0.776	0.785	0.904	0.902	0.869
0.188	0.615	0.426	-0.401	-0.119	0.521	0.971	0.773	0.785	0.902	0.901	0.868
0.191	0.623	0.432	-0.406	-0.12	0.527	0.968	0.77	0.787	0.903	0.903	0.871
0.198	0.629	0.432	-0.413	-0.117	0.531	0.968	0.771	0.787	0.904	0.904	0.871
0.178	0.612	0.433	-0.395	-0.128	0.523	0.975	0.771	0.784	0.9	0.899	0.866
0.163	0.594	0.431	-0.378	-0.135	0.512	0.98	0.774	0.782	0.897	0.897	0.863
0.165	0.585	0.421	-0.374	-0.128	0.503	0.974	0.766	0.775	0.892	0.892	0.859
0.196	0.617	0.421	-0.406	-0.113	0.519	0.977	0.764	0.778	0.898	0.896	0.863
0.21	0.635	0.426	-0.422	-0.108	0.531	0.984	0.769	0.783	0.901	0.9	0.866
0.191	0.616	0.425	-0.403	-0.117	0.52	0.982	0.766	0.779	0.896	0.895	0.86
0.188	0.618	0.429	-0.403	-0.12	0.523	0.984	0.77	0.784	0.901	0.899	0.863
0.194	0.628	0.434	-0.411	-0.12	0.532	0.987	0.775	0.79	0.906	0.903	0.867
0.2	0.635	0.435	-0.417	-0.118	0.535	0.993	0.78	0.796	0.911	0.908	0.871
0.191	0.627	0.438	-0.409	-0.123	0.532	0.988	0.778	0.793	0.91	0.905	0.869
0.178	0.617	0.439	-0.398	-0.13	0.528	0.985	0.772	0.786	0.903	0.898	0.863
0.17	0.605	0.434	-0.387	-0.132	0.52	0.981	0.768	0.78	0.895	0.891	0.856
0.163	0.593	0.43	-0.378	-0.134	0.512	0.975	0.764	0.772	0.886	0.883	0.849
0.172	0.607	0.434	-0.39	-0.131	0.521	0.99	0.772	0.78	0.89	0.888	0.854
0.173	0.613	0.44	-0.393	-0.133	0.526	0.994	0.774	0.784	0.893	0.89	0.855
0.18	0.617	0.436	-0.398	-0.128	0.526	0.998	0.777	0.787	0.895	0.894	0.857
0.185	0.616	0.431	-0.4	-0.123	0.523	0.993	0.776	0.785	0.894	0.893	0.856
0.177	0.607	0.429	-0.392	-0.127	0.518	0.981	0.768	0.78	0.89	0.887	0.851
0.177	0.61	0.432	-0.394	-0.127	0.521	0.988	0.772	0.781	0.891	0.887	0.852
0.165	0.588	0.423	-0.376	-0.13	0.506	0.973	0.764	0.769	0.881	0.876	0.845
0.157	0.574	0.417	-0.365	-0.13	0.495	0.969	0.763	0.771	0.88	0.875	0.845
0.165	0.578	0.413	-0.37	-0.124	0.495	0.983	0.773	0.776	0.883	0.878	0.849
0.167	0.582	0.416	-0.374	-0.124	0.499	0.984	0.772	0.778	0.885	0.88	0.85
0.165	0.588	0.422	-0.376	-0.129	0.505	0.983	0.769	0.778	0.886	0.881	0.85
0.156	0.572	0.416	-0.363	-0.13	0.494	0.985	0.766	0.77	0.877	0.875	0.843
0.152	0.568	0.415	-0.359	-0.132	0.491	0.992	0.769	0.769	0.874	0.872	0.841
0.193	0.57	0.378	-0.381	-0.092	0.474	0.984	0.762	0.757	0.861	0.861	0.828
0.186	0.579	0.393	-0.382	-0.103	0.486	0.987	0.767	0.765	0.869	0.867	0.833
0.142	0.591	0.449	-0.366	-0.153	0.519	1	0.783	0.781	0.883	0.878	0.855
0.148	0.582	0.433	-0.365	-0.142	0.508	0.998	0.783	0.782	0.884	0.883	0.853
0.16	0.581	0.422	-0.37	-0.132	0.501	0.992	0.777	0.777	0.878	0.868	0.834
0.162	0.583	0.421	-0.372	-0.13	0.502	0.989	0.77	0.774	0.875	0.868	0.839
0.165	0.58	0.414	-0.372	-0.124	0.497	0.991	0.772	0.779	0.883	0.884	0.851
0.163	0.58	0.417	-0.37	-0.128	0.499	0.989	0.771	0.774	0.875	0.872	0.839
0.155	0.579	0.424	-0.367	-0.135	0.502	0.99	0.772	0.775	0.877	0.875	0.848
0.158	0.583	0.424	-0.37	-0.134	0.503	0.989	0.769	0.772	0.876	0.875	0.851
0.162	0.584	0.422	-0.372	-0.13	0.503	0.983	0.762	0.762	0.868	0.87	0.847
0.163	0.589	0.425	-0.376	-0.132	0.507	0.982	0.762	0.759	0.869	0.875	0.856
0.153	0.583	0.429	-0.368	-0.139	0.506	0.977	0.756	0.757	0.864	0.875	0.855
0.154	0.582	0.427	-0.368	-0.137	0.505	0.972	0.752	0.753	0.863	0.875	0.857
0.161	0.583	0.422	-0.371	-0.131	0.502	0.965	0.745	0.743	0.857	0.869	0.851
0.162	0.573	0.411	-0.367	-0.124	0.492	0.961	0.738	0.734	0.849	0.864	0.845
0.17	0.583	0.412	-0.376	-0.121	0.497	0.96	0.738	0.737	0.855	0.87	0.849
0.162	0.581	0.418	-0.371	-0.129	0.5	0.964	0.742	0.745	0.865	0.877	0.85
0.153	0.575	0.42	-0.364	-0.134	0.498	0.969	0.744	0.752	0.874	0.884	0.849
0.151	0.577	0.425	-0.364	-0.137	0.501	0.974	0.749	0.766	0.893	0.904	0.858
0.146	0.58	0.432	-0.363	-0.143	0.506	0.974	0.749	0.776	0.909	0.919	0.865
0.144	0.599	0.454	-0.371	-0.155	0.526	0.962	0.734	0.773	0.916	0.93	0.868
0.143	0.617	0.474	-0.38	-0.166	0.545	0.951	0.72	0.769	0.921	0.946	0.876
0.141	0.623	0.481	-0.382	-0.17	0.552	0.943	0.71	0.756	0.917	0.952	0.884
0.147	0.624	0.477	-0.386	-0.165	0.55	0.937	0.704	0.75	0.919	0.963	0.894
0.144	0.623	0.478	-0.383	-0.167	0.55	0.931	0.693	0.742	0.921	0.973	0.9
0.137	0.61	0.473	-0.373	-0.169	0.542	0.93	0.685	0.735	0.922	0.98	0.907
0.141	0.64	0.498	-0.391	-0.178	0.57	0.917	0.671	0.704	0.896	0.965	0.897
0.138	0.662	0.524	-0.4	-0.193	0.594	0.9	0.648	0.662	0.86	0.943	0.888
0.139	0.601	0.462	-0.369	-0.162	0.531	0.917	0.667	0.675	0.875	0.966	0.921
0.146	0.579	0.432	-0.362	-0.143	0.505	0.922	0.676	0.668	0.866	0.964	0.93
0.152	0.607	0.455	-0.379	-0.151	0.531	0.9	0.653	0.626	0.831	0.948	0.927
0.157	0.611	0.454	-0.384	-0.148	0.532	0.878	0.63	0.571	0.785	0.929	0.936
0.157	0.606	0.45	-0.381	-0.146	0.527	0.845	0.587	0.478	0.701	0.88	0.932
0.162	0.604	0.442	-0.383	-0.14	0.523	0.82	0.553	0.409	0.632	0.845	0.947
0.166	0.598	0.432	-0.382	-0.133	0.515	0.801	0.527	0.343	0.566	0.81	0.961
0.17	0.592	0.421	-0.381	-0.126	0.506	0.771	0.484	0.254	0.478	0.759	0.972
0.18	0.597	0.417	-0.389	-0.118	0.507	0.729	0.429	0.147	0.377	0.702	0.981
0.194	0.608	0.414	-0.401	-0.111	0.511	0.669	0.35	0.001	0.244	0.62	0.982
0.206	0.621	0.414	-0.413	-0.104	0.517	0.601	0.26	-0.174	0.082	0.516	0.975
0.213	0.626	0.412	-0.419	-0.1	0.519	0.524	0.158	-0.377	-0.12	0.367	0.936
0.217	0.628	0.41	-0.422	-0.097	0.52	0.446	0.051	-0.573	-0.318	0.21	0.899
0.234	0.654	0.419	-0.444	-0.092	0.537	0.371	-0.051	-0.739	-0.469	0.11	0.895
0.254	0.666	0.413	-0.46	-0.08	0.54	0.309	-0.137	-0.881	-0.605	0.015	0.888
0.248	0.644	0.396	-0.446	-0.074	0.52	0.23	-0.232	-1.04	-0.758	-0.103	0.855
0.256	0.635	0.38	-0.445	-0.062	0.508	0.146	-0.335	-1.2	-0.911	-0.216	0.831
0.27	0.625	0.354	-0.447	-0.042	0.49	0.084	-0.416	-1.344	-1.06	-0.339	0.801
0.282	0.618	0.335	-0.45	-0.026	0.477	0.03	-0.49	-1.478	-1.203	-0.456	0.783
0.303	0.636	0.333	-0.469	-0.015	0.484	-0.022	-0.561	-1.595	-1.317	-0.541	0.785
0.307	0.649	0.342	-0.478	-0.017	0.495	-0.093	-0.647	-1.722	-1.439	-0.636	0.77
0.321	0.669	0.348	-0.495	-0.013	0.509	-0.154	-0.72	-1.812	-1.524	-0.695	0.787
0.347	0.7	0.352	-0.523	-0.002	0.526	-0.226	-0.802	-1.889	-1.587	-0.735	0.814
0.385	0.751	0.365	-0.568	0.01	0.558	-0.29	-0.882	-1.953	-1.636	-0.765	0.841
0.425	0.808	0.383	-0.617	0.021	0.596	-0.323	-0.924	-1.976	-1.647	-0.764	0.874
0.454	0.83	0.377	-0.641	0.038	0.604	-0.368	-0.974	-2.014	-1.675	-0.779	0.91
0.484	0.824	0.34	-0.653	0.072	0.582	-0.411	-1.014	-2.058	-1.724	-0.819	0.938
0.518	0.816	0.297	-0.667	0.111	0.557	-0.439	-1.044	-2.084	-1.753	-0.85	0.961
0.562	0.834	0.272	-0.698	0.145	0.553	-0.472	-1.079	-2.093	-1.748	-0.832	1.041
0.602	0.866	0.265	-0.734	0.169	0.566	-0.498	-1.109	-2.094	-1.737	-0.812	1.099
0.648	0.892	0.244	-0.77	0.202	0.568	-0.534	-1.151	-2.118	-1.757	-0.829	1.133
0.703	0.909	0.206	-0.806	0.248	0.558	-0.569	-1.179	-2.134	-1.777	-0.852	1.177
0.749	0.942	0.193	-0.845	0.278	0.568	-0.587	-1.189	-2.115	-1.762	-0.85	1.21
0.793	0.996	0.202	-0.894	0.296	0.599	-0.61	-1.206	-2.092	-1.738	-0.844	1.225
0.822	1.033	0.211	-0.927	0.305	0.623	-0.626	-1.214	-2.073	-1.726	-0.863	1.201
0.847	1.056	0.209	-0.952	0.319	0.632	-0.635	-1.219	-2.064	-1.734	-0.905	1.149
0.868	1.073	0.205	-0.97	0.332	0.639	-0.641	-1.222	-2.058	-1.749	-0.967	1.079
0.879	1.082	0.203	-0.981	0.338	0.643	-0.642	-1.216	-2.042	-1.754	-1.024	0.994
0.891	1.062	0.172	-0.977	0.36	0.618	-0.622	-1.185	-2.002	-1.742	-1.069	0.905
0.899	1.034	0.135	-0.967	0.383	0.585	-0.584	-1.137	-1.94	-1.708	-1.092	0.844
0.9	1.019	0.118	-0.959	0.391	0.569	-0.546	-1.083	-1.873	-1.673	-1.119	0.764
0.89	0.983	0.092	-0.937	0.399	0.538	-0.51	-1.034	-1.82	-1.661	-1.183	0.642
0.888	0.912	0.025	-0.9	0.432	0.469	-0.449	-0.952	-1.728	-1.614	-1.208	0.556
0.882	0.815	-0.068	-0.848	0.475	0.373	-0.368	-0.841	-1.597	-1.524	-1.183	0.496
0.869	0.72	-0.148	-0.794	0.508	0.286	-0.282	-0.728	-1.456	-1.411	-1.126	0.44
0.856	0.603	-0.254	-0.729	0.554	0.174	-0.184	-0.599	-1.298	-1.285	-1.053	0.393
0.834	0.482	-0.351	-0.657	0.592	0.066	-0.096	-0.489	-1.176	-1.191	-1.005	0.333
0.814	0.386	-0.427	-0.6	0.621	-0.021	-0.023	-0.399	-1.073	-1.108	-0.956	0.297
0.807	0.265	-0.542	-0.536	0.675	-0.139	0.051	-0.304	-0.971	-1.026	-0.905	0.288
0.8	0.136	-0.665	-0.468	0.733	-0.265	0.124	-0.208	-0.866	-0.94	-0.846	0.286
0.79	0.011	-0.779	-0.401	0.784	-0.384	0.194	-0.118	-0.77	-0.863	-0.795	0.279
0.773	-0.098	-0.871	-0.337	0.822	-0.484	0.263	-0.037	-0.687	-0.797	-0.754	0.266
0.757	-0.175	-0.933	-0.29	0.845	-0.554	0.315	0.027	-0.605	-0.722	-0.696	0.269
0.754	-0.218	-0.972	-0.268	0.863	-0.595	0.346	0.065	-0.54	-0.657	-0.642	0.281
0.758	-0.243	-1.002	-0.258	0.88	-0.622	0.372	0.1	-0.479	-0.594	-0.587	0.299
0.756	-0.256	-1.012	-0.251	0.884	-0.633	0.406	0.142	-0.413	-0.526	-0.527	0.32
0.739	-0.27	-1.008	-0.234	0.873	-0.638	0.435	0.177	-0.36	-0.472	-0.481	0.328
0.719	-0.287	-1.006	-0.215	0.862	-0.646	0.46	0.203	-0.316	-0.427	-0.444	0.333
0.694	-0.296	-0.991	-0.199	0.842	-0.643	0.485	0.233	-0.268	-0.379	-0.4	0.339
0.675	-0.294	-0.969	-0.19	0.822	-0.631	0.515	0.267	-0.216	-0.324	-0.351	0.347
0.663	-0.271	-0.934	-0.196	0.799	-0.603	0.556	0.309	-0.159	-0.264	-0.297	0.359
0.646	-0.253	-0.899	-0.197	0.772	-0.576	0.595	0.35	-0.1	-0.201	-0.241	0.377
0.632	-0.212	-0.845	-0.209	0.739	-0.528	0.635	0.389	-0.035	-0.129	-0.172	0.406
0.628	-0.173	-0.801	-0.228	0.715	-0.487	0.668	0.422	0.015	-0.073	-0.118	0.422
0.585	-0.162	-0.747	-0.211	0.665	-0.454	0.681	0.447	0.06	-0.018	-0.067	0.435
0.548	-0.117	-0.664	-0.215	0.607	-0.391	0.7	0.469	0.114	0.047	0.001	0.455
0.509	-0.043	-0.552	-0.233	0.531	-0.297	0.729	0.497	0.182	0.136	0.092	0.493
0.497	0.042	-0.456	-0.269	0.476	-0.207	0.746	0.517	0.256	0.232	0.194	0.541
0.472	0.122	-0.349	-0.297	0.411	-0.113	0.77	0.536	0.324	0.319	0.286	0.577
0.345	0.201	-0.144	-0.273	0.244	0.029	0.825	0.588	0.421	0.44	0.408	0.636
0.301	0.27	-0.033	-0.285	0.167	0.118	0.867	0.632	0.495	0.525	0.493	0.664
0.29	0.303	0.013	-0.296	0.139	0.159	0.894	0.656	0.538	0.577	0.543	0.667
0.266	0.329	0.063	-0.297	0.102	0.196	0.919	0.679	0.576	0.621	0.586	0.675
0.236	0.336	0.1	-0.285	0.069	0.217	0.922	0.685	0.597	0.647	0.614	0.674
0.195	0.34	0.145	-0.267	0.025	0.243	0.929	0.697	0.621	0.677	0.646	0.68
0.196	0.373	0.177	-0.284	0.009	0.276	0.955	0.722	0.654	0.713	0.678	0.691
0.19	0.402	0.212	-0.295	-0.011	0.307	0.967	0.739	0.681	0.742	0.709	0.699
0.184	0.421	0.237	-0.302	-0.027	0.33	0.976	0.751	0.702	0.765	0.732	0.708
0.171	0.434	0.264	-0.302	-0.046	0.349	0.985	0.764	0.722	0.788	0.755	0.72
0.158	0.443	0.286	-0.3	-0.064	0.365	0.991	0.773	0.738	0.807	0.776	0.729
0.145	0.451	0.305	-0.298	-0.08	0.378	0.996	0.777	0.752	0.826	0.793	0.737
0.142	0.462	0.32	-0.301	-0.088	0.391	0.999	0.784	0.767	0.846	0.813	0.747
0.141	0.471	0.331	-0.305	-0.095	0.401	1.002	0.791	0.781	0.863	0.83	0.758
0.135	0.477	0.343	-0.306	-0.104	0.41	1.006	0.796	0.791	0.875	0.84	0.758
0.13	0.486	0.357	-0.308	-0.114	0.422	1.016	0.806	0.803	0.887	0.852	0.761
0.127	0.502	0.376	-0.315	-0.124	0.44	1.024	0.813	0.819	0.903	0.87	0.773
0.154	0.545	0.392	-0.349	-0.118	0.469	1.047	0.832	0.844	0.93	0.897	0.789
0.157	0.562	0.406	-0.359	-0.124	0.484	1.056	0.842	0.855	0.944	0.909	0.797
0.14	0.552	0.413	-0.345	-0.137	0.483	1.053	0.839	0.856	0.947	0.91	0.793
0.137	0.55	0.413	-0.343	-0.139	0.482	1.059	0.845	0.864	0.955	0.916	0.796
0.128	0.542	0.414	-0.335	-0.143	0.478	1.061	0.848	0.869	0.959	0.922	0.794
0.131	0.547	0.416	-0.339	-0.143	0.482	1.067	0.855	0.872	0.962	0.922	0.793
0.117	0.533	0.416	-0.325	-0.149	0.474	1.049	0.845	0.865	0.955	0.915	0.791
0.097	0.511	0.415	-0.304	-0.16	0.464	1.034	0.837	0.866	0.957	0.921	0.784
0.096	0.517	0.421	-0.306	-0.163	0.469	1.043	0.845	0.875	0.964	0.928	0.787
0.098	0.524	0.426	-0.31	-0.165	0.475	1.045	0.844	0.875	0.965	0.928	0.786
0.113	0.547	0.434	-0.33	-0.161	0.491	1.06	0.854	0.887	0.977	0.942	0.794
0.129	0.571	0.442	-0.349	-0.157	0.507	1.073	0.863	0.898	0.988	0.951	0.8
0.121	0.567	0.446	-0.344	-0.163	0.506	1.071	0.861	0.899	0.988	0.95	0.796
0.112	0.56	0.449	-0.336	-0.169	0.504	1.069	0.86	0.899	0.985	0.948	0.794
0.101	0.555	0.454	-0.328	-0.176	0.504	1.065	0.857	0.898	0.985	0.947	0.79
0.095	0.552	0.458	-0.324	-0.182	0.505	1.06	0.854	0.901	0.986	0.949	0.79
0.097	0.556	0.459	-0.326	-0.181	0.508	1.062	0.858	0.908	0.991	0.953	0.79
0.099	0.555	0.457	-0.327	-0.179	0.505	1.065	0.862	0.91	0.995	0.958	0.796
0.096	0.549	0.453	-0.322	-0.178	0.501	1.073	0.868	0.909	0.984	0.944	0.786
0.087	0.55	0.463	-0.319	-0.189	0.507	1.077	0.87	0.909	0.99	0.946	0.779
0.074	0.541	0.467	-0.308	-0.196	0.504	1.072	0.864	0.908	0.996	0.957	0.786
0.064	0.526	0.462	-0.295	-0.199	0.494	1.069	0.863	0.906	0.988	0.946	0.776
0.076	0.541	0.466	-0.308	-0.195	0.503	1.077	0.87	0.915	0.999	0.956	0.783
0.089	0.555	0.466	-0.322	-0.188	0.51	1.091	0.882	0.927	1.009	0.965	0.79
0.086	0.534	0.449	-0.31	-0.181	0.491	1.1	0.893	0.935	1.016	0.972	0.794
0.073	0.508	0.434	-0.29	-0.18	0.471	1.101	0.894	0.935	1.015	0.972	0.793
0.065	0.52	0.455	-0.292	-0.195	0.487	1.095	0.886	0.927	1.006	0.963	0.782
0.062	0.53	0.468	-0.296	-0.203	0.499	1.095	0.885	0.924	1.005	0.961	0.778
0.058	0.526	0.469	-0.292	-0.206	0.498	1.102	0.892	0.927	1.006	0.961	0.776
0.062	0.538	0.476	-0.3	-0.207	0.507	1.104	0.892	0.93	1.01	0.963	0.778
0.07	0.543	0.474	-0.306	-0.203	0.509	1.099	0.888	0.93	1.011	0.963	0.776
0.068	0.542	0.474	-0.305	-0.203	0.508	1.099	0.886	0.93	1.01	0.964	0.773
0.066	0.534	0.469	-0.299	-0.202	0.502	1.101	0.887	0.93	1.01	0.963	0.772
0.061	0.528	0.468	-0.294	-0.203	0.498	1.103	0.888	0.932	1.01	0.963	0.771
0.061	0.535	0.473	-0.298	-0.206	0.504	1.103	0.888	0.934	1.015	0.966	0.772
0.062	0.54	0.478	-0.301	-0.207	0.509	1.105	0.888	0.935	1.018	0.967	0.773
0.055	0.536	0.481	-0.295	-0.213	0.509	1.107	0.89	0.937	1.018	0.968	0.772
0.046	0.523	0.477	-0.284	-0.215	0.5	1.101	0.885	0.931	1.012	0.962	0.766
0.045	0.525	0.48	-0.285	-0.217	0.503	1.103	0.887	0.932	1.014	0.964	0.767
0.05	0.537	0.487	-0.293	-0.218	0.512	1.113	0.896	0.94	1.019	0.969	0.77
0.056	0.541	0.485	-0.298	-0.214	0.513	1.119	0.905	0.945	1.022	0.973	0.772
0.053	0.538	0.485	-0.295	-0.216	0.512	1.119	0.907	0.949	1.026	0.976	0.775
0.045	0.534	0.489	-0.289	-0.222	0.511	1.116	0.904	0.949	1.025	0.974	0.772
0.048	0.537	0.49	-0.292	-0.221	0.514	1.113	0.901	0.95	1.024	0.975	0.772
0.048	0.538	0.491	-0.292	-0.222	0.515	1.109	0.897	0.949	1.026	0.973	0.77
0.053	0.539	0.486	-0.296	-0.217	0.513	1.111	0.895	0.952	1.027	0.975	0.769
0.056	0.541	0.485	-0.298	-0.214	0.513	1.116	0.9	0.956	1.032	0.978	0.77
0.059	0.531	0.472	-0.295	-0.206	0.502	1.117	0.905	0.959	1.037	0.981	0.772
0.052	0.513	0.461	-0.282	-0.204	0.487	1.123	0.911	0.968	1.046	0.987	0.777
0.071	0.499	0.428	-0.285	-0.178	0.465	1.12	0.909	0.966	1.044	0.983	0.775
0.096	0.493	0.399	-0.294	-0.151	0.446	1.113	0.901	0.961	1.04	0.978	0.769
0.041	0.483	0.442	-0.262	-0.201	0.463	1.137	0.924	0.987	1.066	1.002	0.791
0.021	0.489	0.469	-0.256	-0.224	0.479	1.145	0.933	0.995	1.073	1.009	0.797
0.043	0.493	0.451	-0.268	-0.204	0.472	1.138	0.925	0.987	1.065	1	0.784
0.044	0.512	0.469	-0.278	-0.212	0.49	1.133	0.921	0.982	1.06	0.996	0.777
0.048	0.584	0.536	-0.316	-0.244	0.56	1.111	0.899	0.961	1.039	0.973	0.75
0.045	0.604	0.558	-0.324	-0.257	0.581	1.11	0.897	0.96	1.037	0.973	0.747
0.05	0.57	0.52	-0.309	-0.235	0.545	1.124	0.91	0.974	1.052	0.988	0.761
0.051	0.554	0.504	-0.302	-0.227	0.529	1.128	0.912	0.98	1.056	0.989	0.76
0.046	0.549	0.503	-0.297	-0.229	0.526	1.131	0.919	0.985	1.062	0.992	0.762
0.05	0.547	0.498	-0.298	-0.224	0.523	1.133	0.924	0.991	1.067	0.995	0.764
0.051	0.548	0.497	-0.299	-0.223	0.522	1.136	0.926	0.996	1.072	1	0.766
0.048	0.55	0.502	-0.299	-0.228	0.527	1.137	0.93	0.998	1.077	1.004	0.765
0.048	0.546	0.499	-0.297	-0.226	0.523	1.141	0.934	1.004	1.081	1.007	0.767
0.048	0.525	0.477	-0.286	-0.215	0.501	1.153	0.945	1.015	1.09	1.016	0.775
0.05	0.517	0.467	-0.283	-0.208	0.492	1.157	0.951	1.022	1.098	1.022	0.78
0.053	0.523	0.47	-0.288	-0.209	0.497	1.155	0.951	1.023	1.098	1.021	0.777
0.053	0.526	0.472	-0.289	-0.209	0.499	1.155	0.952	1.027	1.101	1.024	0.778
0.052	0.527	0.475	-0.289	-0.212	0.502	1.158	0.954	1.03	1.107	1.026	0.777
0.053	0.527	0.473	-0.289	-0.21	0.5	1.16	0.956	1.034	1.109	1.027	0.778
0.052	0.526	0.474	-0.289	-0.21	0.5	1.163	0.958	1.038	1.113	1.029	0.779
0.051	0.525	0.474	-0.287	-0.211	0.5	1.165	0.962	1.041	1.115	1.03	0.78
0.058	0.529	0.472	-0.293	-0.207	0.501	1.169	0.968	1.05	1.125	1.043	0.78
0.061	0.536	0.475	-0.298	-0.207	0.506	1.175	0.972	1.06	1.137	1.042	0.755
0.062	0.539	0.477	-0.3	-0.207	0.509	1.179	0.973	1.062	1.142	1.038	0.732
0.059	0.538	0.479	-0.298	-0.21	0.508	1.179	0.973	1.062	1.145	1.042	0.726
0.051	0.532	0.482	-0.291	-0.216	0.507	1.175	0.973	1.067	1.15	1.042	0.726
0.054	0.537	0.483	-0.295	-0.214	0.51	1.184	0.981	1.07	1.155	1.042	0.727
0.052	0.528	0.476	-0.29	-0.212	0.502	1.177	0.977	1.067	1.149	1.032	0.722
0.04	0.513	0.473	-0.277	-0.217	0.494	1.167	0.97	1.065	1.145	1.024	0.721
0.038	0.514	0.475	-0.276	-0.218	0.495	1.176	0.974	1.071	1.153	1.032	0.733
0.042	0.518	0.476	-0.28	-0.217	0.498	1.172	0.975	1.078	1.161	1.042	0.747
0.045	0.528	0.483	-0.286	-0.22	0.506	1.167	0.974	1.081	1.165	1.048	0.756
0.043	0.531	0.488	-0.287	-0.223	0.51	1.167	0.978	1.081	1.163	1.05	0.765
0.042	0.528	0.487	-0.284	-0.223	0.508	1.167	0.982	1.082	1.157	1.056	0.777
0.056	0.541	0.485	-0.298	-0.215	0.513	1.173	0.988	1.093	1.159	1.067	0.795
0.067	0.548	0.481	-0.307	-0.207	0.515	1.181	0.994	1.101	1.159	1.071	0.809
0.06	0.533	0.473	-0.296	-0.206	0.503	1.186	0.995	1.101	1.159	1.069	0.806
0.047	0.519	0.471	-0.282	-0.212	0.495	1.197	1	1.101	1.161	1.056	0.785
0.039	0.511	0.472	-0.275	-0.217	0.492	1.213	1.009	1.111	1.173	1.071	0.796
0.032	0.512	0.479	-0.272	-0.224	0.496	1.214	1.01	1.116	1.179	1.085	0.804
0.027	0.518	0.491	-0.273	-0.232	0.505	1.208	1.006	1.115	1.177	1.075	0.79
0.029	0.524	0.495	-0.277	-0.233	0.51	1.211	1.01	1.123	1.185	1.08	0.788
0.032	0.53	0.498	-0.281	-0.233	0.514	1.217	1.015	1.129	1.192	1.083	0.784
0.039	0.538	0.499	-0.288	-0.23	0.519	1.215	1.017	1.135	1.198	1.086	0.783
0.022	0.516	0.494	-0.27	-0.236	0.505	1.213	1.019	1.132	1.195	1.08	0.776
0.013	0.514	0.501	-0.264	-0.244	0.508	1.218	1.02	1.137	1.2	1.081	0.773
0.031	0.544	0.513	-0.287	-0.241	0.528	1.226	1.03	1.155	1.218	1.099	0.784
0.025	0.533	0.508	-0.279	-0.241	0.521	1.23	1.035	1.156	1.222	1.099	0.782
0.008	0.513	0.505	-0.261	-0.248	0.509	1.222	1.029	1.154	1.22	1.095	0.774
0.007	0.513	0.506	-0.26	-0.249	0.509	1.22	1.031	1.157	1.223	1.096	0.771
0.019	0.529	0.51	-0.274	-0.245	0.52	1.228	1.036	1.169	1.233	1.103	0.773
0.022	0.536	0.514	-0.279	-0.246	0.525	1.234	1.044	1.18	1.242	1.111	0.775
0.024	0.539	0.515	-0.281	-0.246	0.527	1.238	1.048	1.185	1.249	1.115	0.777
0.024	0.542	0.518	-0.283	-0.247	0.531	1.244	1.052	1.192	1.254	1.12	0.775
0.017	0.538	0.521	-0.277	-0.252	0.53	1.244	1.054	1.196	1.256	1.121	0.771
0.018	0.547	0.529	-0.282	-0.256	0.538	1.248	1.059	1.203	1.262	1.125	0.772
0.018	0.549	0.531	-0.283	-0.257	0.54	1.256	1.068	1.212	1.268	1.131	0.771
0.015	0.551	0.535	-0.283	-0.26	0.543	1.262	1.075	1.221	1.276	1.137	0.772
0.019	0.565	0.545	-0.292	-0.263	0.555	1.273	1.083	1.234	1.288	1.147	0.777
0.019	0.575	0.555	-0.297	-0.268	0.566	1.279	1.087	1.242	1.296	1.153	0.775
0.018	0.577	0.559	-0.297	-0.271	0.569	1.273	1.081	1.242	1.296	1.153	0.77
0.011	0.566	0.554	-0.288	-0.272	0.56	1.251	1.065	1.236	1.293	1.148	0.764
0	0.554	0.554	-0.277	-0.277	0.554	1.24	1.058	1.234	1.291	1.145	0.754
-0.004	0.554	0.558	-0.275	-0.281	0.556	1.252	1.069	1.243	1.299	1.149	0.754
-0.015	0.548	0.562	-0.267	-0.288	0.555	1.257	1.075	1.248	1.304	1.153	0.751
-0.013	0.551	0.564	-0.269	-0.288	0.558	1.261	1.076	1.252	1.308	1.155	0.752
0.001	0.564	0.563	-0.282	-0.281	0.564	1.272	1.084	1.262	1.319	1.163	0.757
0.004	0.564	0.56	-0.283	-0.278	0.562	1.274	1.086	1.267	1.324	1.165	0.75
-0.005	0.56	0.566	-0.277	-0.286	0.564	1.276	1.089	1.271	1.329	1.167	0.75
-0.01	0.556	0.566	-0.273	-0.288	0.561	1.278	1.097	1.279	1.336	1.171	0.753
-0.003	0.563	0.566	-0.28	-0.284	0.565	1.281	1.099	1.289	1.344	1.178	0.753
-0.003	0.57	0.573	-0.283	-0.288	0.572	1.284	1.103	1.296	1.353	1.183	0.757
-0.004	0.57	0.575	-0.282	-0.289	0.573	1.286	1.107	1.302	1.359	1.188	0.756
-0.007	0.569	0.577	-0.28	-0.292	0.573	1.285	1.109	1.307	1.363	1.189	0.753
-0.011	0.566	0.576	-0.278	-0.293	0.571	1.281	1.107	1.309	1.365	1.191	0.751
-0.009	0.57	0.579	-0.28	-0.294	0.575	1.28	1.108	1.315	1.371	1.195	0.75
-0.011	0.574	0.585	-0.281	-0.297	0.58	1.284	1.114	1.324	1.379	1.203	0.752
-0.011	0.577	0.589	-0.282	-0.299	0.583	1.285	1.117	1.33	1.385	1.208	0.751
-0.006	0.58	0.586	-0.287	-0.296	0.584	1.285	1.119	1.335	1.391	1.213	0.753
-0.009	0.578	0.587	-0.284	-0.297	0.583	1.289	1.124	1.341	1.396	1.217	0.752
-0.013	0.58	0.593	-0.283	-0.303	0.586	1.288	1.125	1.347	1.401	1.218	0.75
-0.013	0.586	0.599	-0.286	-0.306	0.593	1.29	1.124	1.352	1.407	1.224	0.752
-0.018	0.588	0.605	-0.285	-0.311	0.597	1.289	1.124	1.357	1.411	1.228	0.75
-0.017	0.592	0.609	-0.287	-0.312	0.601	1.288	1.123	1.361	1.416	1.232	0.75
-0.015	0.597	0.612	-0.29	-0.314	0.605	1.292	1.125	1.367	1.422	1.237	0.751
-0.018	0.598	0.616	-0.29	-0.316	0.607	1.291	1.128	1.372	1.429	1.243	0.753
-0.026	0.596	0.622	-0.284	-0.324	0.609	1.29	1.128	1.374	1.431	1.244	0.75
-0.03	0.598	0.627	-0.284	-0.328	0.613	1.288	1.127	1.377	1.435	1.249	0.752
-0.028	0.603	0.63	-0.287	-0.329	0.617	1.294	1.137	1.381	1.433	1.248	0.75
-0.025	0.607	0.631	-0.29	-0.328	0.619	1.297	1.142	1.39	1.442	1.25	0.745
-0.026	0.603	0.629	-0.288	-0.327	0.616	1.29	1.137	1.394	1.458	1.268	0.757
-0.036	0.594	0.629	-0.279	-0.333	0.612	1.29	1.137	1.393	1.451	1.264	0.751
-0.037	0.597	0.633	-0.28	-0.335	0.616	1.288	1.132	1.394	1.453	1.264	0.75
-0.04	0.595	0.634	-0.278	-0.337	0.615	1.288	1.133	1.395	1.458	1.268	0.751
-0.045	0.587	0.632	-0.271	-0.338	0.61	1.286	1.129	1.39	1.452	1.264	0.746
-0.048	0.591	0.638	-0.272	-0.343	0.615	1.282	1.127	1.391	1.456	1.266	0.745
-0.041	0.598	0.639	-0.278	-0.34	0.619	1.284	1.129	1.397	1.462	1.272	0.746
-0.035	0.599	0.633	-0.281	-0.334	0.617	1.286	1.131	1.404	1.468	1.278	0.752
-0.03	0.604	0.633	-0.286	-0.331	0.619	1.29	1.136	1.411	1.475	1.284	0.756
-0.032	0.607	0.638	-0.287	-0.335	0.623	1.291	1.135	1.415	1.48	1.289	0.758
-0.041	0.606	0.647	-0.282	-0.344	0.626	1.294	1.14	1.42	1.484	1.293	0.758
-0.042	0.609	0.651	-0.283	-0.346	0.63	1.296	1.142	1.423	1.486	1.298	0.758
-0.041	0.615	0.656	-0.287	-0.348	0.636	1.302	1.15	1.43	1.49	1.304	0.759
-0.04	0.62	0.659	-0.29	-0.349	0.64	1.308	1.157	1.437	1.498	1.31	0.764
-0.043	0.617	0.66	-0.286	-0.351	0.639	1.31	1.159	1.44	1.505	1.315	0.767
-0.049	0.614	0.663	-0.282	-0.355	0.639	1.306	1.157	1.442	1.506	1.316	0.766
-0.05	0.617	0.666	-0.283	-0.357	0.641	1.3	1.153	1.441	1.508	1.319	0.766
-0.041	0.626	0.667	-0.292	-0.353	0.646	1.3	1.151	1.444	1.514	1.327	0.771
-0.045	0.621	0.666	-0.287	-0.355	0.643	1.292	1.146	1.444	1.516	1.329	0.773
-0.056	0.611	0.667	-0.278	-0.361	0.639	1.284	1.143	1.441	1.516	1.329	0.772
-0.055	0.616	0.671	-0.281	-0.362	0.644	1.29	1.145	1.447	1.522	1.338	0.778
-0.052	0.621	0.673	-0.284	-0.362	0.647	1.29	1.149	1.45	1.526	1.343	0.782
-0.05	0.623	0.672	-0.286	-0.36	0.647	1.289	1.146	1.444	1.522	1.341	0.786
-0.052	0.62	0.672	-0.283	-0.362	0.646	1.291	1.147	1.452	1.532	1.352	0.792
-0.058	0.618	0.675	-0.28	-0.366	0.646	1.292	1.149	1.456	1.536	1.36	0.796
-0.054	0.621	0.675	-0.283	-0.364	0.648	1.287	1.147	1.451	1.533	1.358	0.801
-0.048	0.62	0.667	-0.286	-0.357	0.644	1.287	1.145	1.447	1.534	1.361	0.804
-0.045	0.619	0.663	-0.286	-0.354	0.641	1.288	1.144	1.447	1.534	1.365	0.809
-0.045	0.619	0.664	-0.286	-0.354	0.642	1.282	1.143	1.446	1.536	1.368	0.815
-0.051	0.614	0.665	-0.281	-0.358	0.64	1.273	1.135	1.439	1.532	1.367	0.815
-0.059	0.598	0.657	-0.269	-0.358	0.628	1.262	1.127	1.431	1.525	1.363	0.813
-0.046	0.597	0.642	-0.275	-0.344	0.62	1.262	1.129	1.427	1.522	1.365	0.82
-0.052	0.587	0.639	-0.267	-0.345	0.613	1.256	1.121	1.419	1.518	1.363	0.821
-0.051	0.594	0.644	-0.271	-0.347	0.619	1.254	1.115	1.417	1.518	1.367	0.825
0.008	0.667	0.659	-0.338	-0.325	0.663	1.286	1.135	1.437	1.54	1.394	0.852
0.01	0.67	0.66	-0.34	-0.325	0.666	1.283	1.133	1.433	1.542	1.4	0.863
-0.013	0.643	0.656	-0.315	-0.335	0.65	1.262	1.117	1.416	1.528	1.393	0.859
-0.007	0.651	0.658	-0.322	-0.333	0.654	1.246	1.109	1.411	1.525	1.394	0.865
-0.007	0.652	0.659	-0.323	-0.333	0.656	1.235	1.101	1.403	1.522	1.395	0.871
0.007	0.663	0.655	-0.335	-0.324	0.659	1.24	1.101	1.4	1.52	1.399	0.879
0.038	0.656	0.617	-0.347	-0.289	0.636	1.222	1.083	1.377	1.5	1.384	0.87
0.015	0.645	0.63	-0.33	-0.307	0.638	1.222	1.083	1.371	1.496	1.386	0.88
-0.036	0.631	0.668	-0.297	-0.352	0.65	1.236	1.097	1.375	1.504	1.397	0.899
-0.026	0.622	0.648	-0.298	-0.337	0.635	1.226	1.079	1.357	1.488	1.385	0.896
-0.011	0.609	0.62	-0.299	-0.315	0.615	1.227	1.074	1.349	1.482	1.386	0.905
-0.004	0.612	0.616	-0.303	-0.31	0.614	1.23	1.071	1.34	1.474	1.384	0.911
0.009	0.64	0.63	-0.325	-0.31	0.635	1.225	1.062	1.326	1.46	1.375	0.913
0.013	0.65	0.637	-0.331	-0.312	0.644	1.213	1.053	1.313	1.448	1.369	0.916
0.017	0.655	0.639	-0.336	-0.311	0.647	1.205	1.044	1.3	1.437	1.361	0.921
0.017	0.653	0.636	-0.334	-0.31	0.645	1.197	1.034	1.284	1.421	1.351	0.922
0.011	0.64	0.629	-0.326	-0.309	0.635	1.177	1.013	1.263	1.401	1.337	0.917
0.019	0.644	0.625	-0.332	-0.303	0.635	1.173	1.002	1.252	1.391	1.333	0.924
0.029	0.655	0.626	-0.342	-0.298	0.641	1.169	0.997	1.243	1.381	1.329	0.929
0.035	0.657	0.623	-0.345	-0.294	0.64	1.165	0.993	1.234	1.373	1.324	0.936
0.041	0.657	0.617	-0.349	-0.288	0.637	1.166	0.992	1.225	1.365	1.319	0.943
0.041	0.653	0.613	-0.346	-0.286	0.633	1.151	0.977	1.208	1.349	1.308	0.942
0.041	0.652	0.611	-0.346	-0.285	0.631	1.133	0.959	1.19	1.332	1.294	0.943
0.048	0.66	0.613	-0.354	-0.282	0.636	1.117	0.949	1.175	1.318	1.283	0.943
0.058	0.661	0.604	-0.359	-0.273	0.633	1.113	0.942	1.162	1.304	1.272	0.943
0.059	0.65	0.592	-0.354	-0.267	0.622	1.101	0.93	1.145	1.289	1.258	0.942
0.064	0.647	0.584	-0.355	-0.26	0.616	1.093	0.92	1.127	1.274	1.243	0.941
0.072	0.656	0.584	-0.364	-0.256	0.621	1.094	0.917	1.117	1.262	1.236	0.943
0.072	0.651	0.579	-0.362	-0.253	0.615	1.082	0.906	1.1	1.244	1.221	0.94
0.076	0.646	0.57	-0.361	-0.247	0.609	1.073	0.892	1.084	1.228	1.211	0.938
0.085	0.634	0.55	-0.359	-0.233	0.593	1.077	0.894	1.081	1.222	1.21	0.944
0.094	0.621	0.526	-0.357	-0.216	0.574	1.066	0.885	1.067	1.208	1.19	0.945
0.08	0.62	0.539	-0.349	-0.23	0.58	1.049	0.87	1.048	1.19	1.177	0.941
0.087	0.624	0.536	-0.355	-0.225	0.58	1.051	0.866	1.038	1.178	1.165	0.936
0.095	0.631	0.537	-0.362	-0.222	0.585	1.054	0.867	1.031	1.169	1.158	0.938
0.127	0.623	0.496	-0.374	-0.185	0.56	1.035	0.848	1.004	1.141	1.133	0.921
0.145	0.621	0.476	-0.383	-0.166	0.549	1.024	0.833	0.987	1.124	1.115	0.911
0.075	0.623	0.547	-0.348	-0.236	0.586	1.05	0.857	1.008	1.145	1.138	0.941
0.087	0.62	0.533	-0.353	-0.223	0.577	1.043	0.855	0.996	1.133	1.127	0.94
0.111	0.619	0.508	-0.364	-0.199	0.564	1.03	0.839	0.976	1.111	1.107	0.926
0.107	0.618	0.511	-0.362	-0.202	0.565	1.028	0.834	0.968	1.103	1.099	0.924
0.115	0.618	0.504	-0.366	-0.195	0.561	1.02	0.827	0.956	1.091	1.088	0.918
0.106	0.613	0.507	-0.359	-0.201	0.56	1.012	0.819	0.945	1.079	1.077	0.911
0.109	0.615	0.505	-0.361	-0.198	0.56	1.005	0.812	0.931	1.067	1.064	0.906
0.103	0.611	0.508	-0.357	-0.203	0.559	1.002	0.809	0.923	1.057	1.058	0.904
0.124	0.625	0.501	-0.374	-0.189	0.564	1.004	0.808	0.923	1.054	1.054	0.908
0.135	0.634	0.499	-0.384	-0.182	0.567	1.01	0.811	0.922	1.052	1.054	0.912
0.122	0.612	0.489	-0.366	-0.183	0.55	1.006	0.808	0.913	1.043	1.044	0.905
0.125	0.605	0.479	-0.365	-0.177	0.542	1.005	0.808	0.909	1.039	1.038	0.903
0.127	0.608	0.481	-0.366	-0.177	0.544	1.006	0.805	0.904	1.032	1.034	0.902
0.127	0.604	0.477	-0.365	-0.175	0.541	1.001	0.8	0.893	1.019	1.022	0.897
0.123	0.599	0.474	-0.361	-0.175	0.537	0.996	0.795	0.884	1.008	1.012	0.89
0.122	0.594	0.471	-0.358	-0.174	0.533	0.996	0.795	0.879	1.003	1.006	0.885
0.121	0.591	0.469	-0.356	-0.174	0.53	0.998	0.799	0.877	1.002	1.002	0.888
0.126	0.594	0.469	-0.359	-0.172	0.531	0.994	0.795	0.872	0.995	0.995	0.883
0.129	0.592	0.464	-0.36	-0.167	0.528	0.989	0.789	0.864	0.986	0.987	0.877
0.116	0.584	0.468	-0.349	-0.176	0.526	0.982	0.781	0.856	0.978	0.981	0.874
0.119	0.587	0.468	-0.352	-0.174	0.527	0.977	0.777	0.851	0.974	0.978	0.873
0.122	0.586	0.464	-0.354	-0.171	0.525	0.974	0.775	0.846	0.967	0.97	0.865
0.131	0.598	0.467	-0.364	-0.168	0.533	0.979	0.777	0.846	0.969	0.973	0.87
0.152	0.615	0.463	-0.384	-0.155	0.539	0.988	0.785	0.849	0.966	0.972	0.875
0.146	0.607	0.46	-0.376	-0.157	0.533	0.988	0.783	0.842	0.955	0.958	0.859
0.141	0.605	0.463	-0.373	-0.161	0.533	0.982	0.772	0.841	0.964	0.968	0.867
0.135	0.596	0.462	-0.365	-0.164	0.529	0.98	0.767	0.832	0.954	0.956	0.862
0.131	0.592	0.461	-0.361	-0.165	0.526	0.983	0.768	0.826	0.944	0.945	0.853
0.138	0.598	0.461	-0.367	-0.161	0.529	0.984	0.772	0.83	0.948	0.947	0.86
0.137	0.596	0.459	-0.365	-0.161	0.527	0.981	0.772	0.827	0.943	0.942	0.857
0.131	0.591	0.459	-0.36	-0.164	0.525	0.977	0.766	0.821	0.938	0.938	0.852
0.126	0.586	0.46	-0.356	-0.167	0.523	0.976	0.763	0.815	0.931	0.932	0.848
0.135	0.593	0.459	-0.363	-0.162	0.526	0.976	0.763	0.815	0.934	0.933	0.851
0.137	0.594	0.457	-0.365	-0.161	0.525	0.975	0.764	0.815	0.931	0.931	0.848
0.136	0.594	0.458	-0.364	-0.161	0.526	0.976	0.762	0.81	0.926	0.927	0.843
0.138	0.597	0.459	-0.366	-0.161	0.527	0.975	0.758	0.808	0.924	0.926	0.843
0.139	0.597	0.459	-0.367	-0.16	0.528	0.978	0.763	0.812	0.925	0.927	0.846
0.142	0.598	0.456	-0.37	-0.157	0.526	0.982	0.766	0.812	0.925	0.927	0.846
0.141	0.595	0.454	-0.368	-0.157	0.525	0.984	0.769	0.812	0.924	0.927	0.843
0.141	0.598	0.457	-0.369	-0.158	0.528	0.983	0.768	0.812	0.925	0.927	0.844
0.141	0.6	0.459	-0.369	-0.159	0.529	0.978	0.762	0.809	0.922	0.924	0.841
0.137	0.601	0.464	-0.368	-0.164	0.533	0.978	0.761	0.81	0.922	0.924	0.84
0.137	0.607	0.469	-0.371	-0.167	0.538	0.976	0.762	0.809	0.919	0.925	0.84
0.133	0.609	0.476	-0.37	-0.172	0.542	0.978	0.764	0.81	0.921	0.927	0.843
0.128	0.608	0.479	-0.367	-0.175	0.543	0.979	0.766	0.812	0.924	0.929	0.843
0.13	0.61	0.48	-0.37	-0.174	0.545	0.972	0.758	0.804	0.919	0.926	0.84
0.13	0.608	0.479	-0.368	-0.174	0.543	0.968	0.751	0.801	0.92	0.927	0.842
0.121	0.605	0.483	-0.363	-0.181	0.544	0.968	0.752	0.804	0.921	0.928	0.842
0.122	0.605	0.482	-0.362	-0.18	0.543	0.969	0.753	0.804	0.921	0.929	0.844
0.131	0.605	0.474	-0.367	-0.172	0.539	0.968	0.753	0.796	0.915	0.921	0.837
0.137	0.607	0.47	-0.371	-0.167	0.539	0.974	0.756	0.794	0.911	0.917	0.833
0.137	0.61	0.473	-0.373	-0.168	0.542	0.979	0.757	0.796	0.914	0.918	0.833
0.138	0.61	0.472	-0.373	-0.167	0.541	0.982	0.759	0.799	0.918	0.92	0.835
0.132	0.588	0.457	-0.359	-0.163	0.522	0.981	0.759	0.802	0.92	0.924	0.837
0.122	0.586	0.463	-0.354	-0.17	0.524	0.974	0.755	0.798	0.915	0.917	0.832
0.131	0.58	0.449	-0.355	-0.159	0.514	0.993	0.771	0.814	0.929	0.93	0.845
0.13	0.56	0.43	-0.345	-0.15	0.495	0.996	0.779	0.821	0.936	0.937	0.849
0.123	0.534	0.41	-0.329	-0.143	0.472	0.991	0.778	0.82	0.935	0.935	0.849
0.123	0.52	0.398	-0.322	-0.137	0.459	0.991	0.779	0.819	0.936	0.935	0.848
0.13	0.571	0.442	-0.35	-0.156	0.506	0.972	0.76	0.806	0.922	0.923	0.833
0.136	0.579	0.443	-0.357	-0.153	0.511	0.973	0.759	0.806	0.921	0.925	0.834
0.133	0.593	0.46	-0.362	-0.164	0.526	0.972	0.759	0.801	0.916	0.918	0.827
0.136	0.646	0.51	-0.391	-0.188	0.579	0.959	0.75	0.791	0.904	0.907	0.814
0.144	0.643	0.499	-0.394	-0.177	0.571	0.967	0.756	0.798	0.912	0.916	0.821
0.141	0.642	0.501	-0.392	-0.18	0.572	0.966	0.755	0.796	0.909	0.915	0.818
0.135	0.642	0.507	-0.388	-0.186	0.575	0.969	0.755	0.798	0.908	0.913	0.816
0.135	0.619	0.484	-0.377	-0.175	0.552	0.979	0.764	0.806	0.915	0.92	0.822
0.123	0.599	0.475	-0.361	-0.176	0.537	0.977	0.76	0.8	0.909	0.915	0.816
0.135	0.603	0.469	-0.368	-0.167	0.536	0.992	0.78	0.814	0.922	0.926	0.829
