0.053	0.192	0.138	-0.122	-0.043	0.165	-0.261	0.124	0.141	0.301	0.206	0.812
0.052	0.187	0.135	-0.119	-0.042	0.161	-0.263	0.126	0.14	0.301	0.204	0.811
0.051	0.182	0.131	-0.117	-0.04	0.157	-0.261	0.125	0.139	0.301	0.204	0.81
0.05	0.181	0.131	-0.115	-0.042	0.157	-0.263	0.123	0.134	0.298	0.202	0.806
0.051	0.179	0.128	-0.115	-0.038	0.154	-0.264	0.121	0.132	0.294	0.199	0.803
0.051	0.177	0.126	-0.115	-0.038	0.152	-0.263	0.121	0.133	0.294	0.199	0.805
0.043	0.18	0.136	-0.112	-0.046	0.158	-0.262	0.123	0.133	0.293	0.198	0.804
0.038	0.182	0.142	-0.111	-0.052	0.163	-0.258	0.124	0.132	0.292	0.197	0.801
0.037	0.18	0.143	-0.109	-0.053	0.162	-0.259	0.121	0.13	0.29	0.193	0.797
0.04	0.178	0.138	-0.11	-0.05	0.159	-0.258	0.123	0.131	0.289	0.19	0.794
0.046	0.177	0.131	-0.112	-0.043	0.154	-0.255	0.124	0.132	0.288	0.19	0.794
0.045	0.176	0.131	-0.111	-0.043	0.154	-0.254	0.124	0.129	0.287	0.189	0.792
0.036	0.176	0.14	-0.106	-0.052	0.159	-0.248	0.128	0.13	0.288	0.189	0.793
0.032	0.172	0.14	-0.102	-0.054	0.157	-0.246	0.126	0.129	0.284	0.184	0.79
0.025	0.167	0.141	-0.097	-0.059	0.154	-0.244	0.128	0.127	0.283	0.18	0.785
0.015	0.167	0.151	-0.091	-0.069	0.16	-0.24	0.13	0.128	0.282	0.18	0.783
0.009	0.165	0.155	-0.087	-0.073	0.161	-0.236	0.131	0.129	0.281	0.177	0.783
0.003	0.165	0.161	-0.084	-0.08	0.164	-0.232	0.135	0.13	0.282	0.175	0.78
-0.002	0.163	0.164	-0.08	-0.084	0.164	-0.23	0.136	0.127	0.279	0.172	0.776
-0.004	0.16	0.163	-0.078	-0.084	0.162	-0.226	0.137	0.126	0.278	0.171	0.773
-0.004	0.161	0.163	-0.079	-0.084	0.163	-0.222	0.137	0.126	0.276	0.167	0.771
-0.002	0.156	0.157	-0.077	-0.08	0.157	-0.22	0.138	0.124	0.273	0.163	0.765
-0.003	0.15	0.152	-0.073	-0.078	0.151	-0.217	0.137	0.122	0.271	0.158	0.76
-0.003	0.145	0.147	-0.071	-0.075	0.146	-0.215	0.136	0.119	0.266	0.152	0.755
-0.003	0.145	0.147	-0.071	-0.075	0.146	-0.213	0.139	0.117	0.265	0.147	0.75
-0.011	0.143	0.153	-0.067	-0.083	0.149	-0.209	0.138	0.116	0.262	0.145	0.747
-0.024	0.138	0.162	-0.057	-0.093	0.15	-0.205	0.138	0.114	0.258	0.141	0.742
-0.03	0.138	0.168	-0.053	-0.1	0.153	-0.201	0.14	0.114	0.255	0.136	0.737
-0.036	0.137	0.173	-0.05	-0.105	0.155	-0.195	0.141	0.113	0.253	0.131	0.733
-0.04	0.137	0.175	-0.049	-0.108	0.157	-0.189	0.145	0.115	0.254	0.129	0.732
-0.043	0.134	0.176	-0.045	-0.111	0.155	-0.185	0.147	0.117	0.253	0.128	0.73
-0.051	0.133	0.183	-0.042	-0.117	0.159	-0.18	0.146	0.113	0.247	0.121	0.722
-0.053	0.133	0.186	-0.04	-0.12	0.161	-0.177	0.147	0.111	0.242	0.117	0.716
-0.052	0.132	0.183	-0.04	-0.118	0.158	-0.173	0.151	0.112	0.244	0.115	0.714
-0.05	0.128	0.177	-0.039	-0.114	0.153	-0.171	0.152	0.11	0.241	0.11	0.709
-0.064	0.123	0.187	-0.03	-0.126	0.156	-0.166	0.155	0.111	0.238	0.107	0.704
-0.068	0.123	0.191	-0.028	-0.13	0.158	-0.159	0.159	0.113	0.239	0.107	0.704
-0.07	0.119	0.188	-0.025	-0.129	0.153	-0.157	0.159	0.11	0.237	0.103	0.701
-0.088	0.113	0.2	-0.013	-0.144	0.157	-0.152	0.16	0.108	0.234	0.099	0.697
-0.091	0.111	0.202	-0.01	-0.147	0.157	-0.146	0.161	0.109	0.233	0.098	0.694
-0.089	0.109	0.198	-0.01	-0.144	0.154	-0.143	0.162	0.106	0.232	0.092	0.689
-0.094	0.107	0.202	-0.007	-0.148	0.155	-0.139	0.164	0.105	0.229	0.088	0.686
-0.092	0.104	0.197	-0.006	-0.145	0.151	-0.136	0.162	0.102	0.224	0.083	0.68
-0.083	0.102	0.184	-0.01	-0.134	0.143	-0.138	0.158	0.097	0.217	0.074	0.67
-0.08	0.102	0.181	-0.011	-0.132	0.142	-0.137	0.157	0.096	0.213	0.069	0.667
-0.083	0.101	0.182	-0.009	-0.133	0.142	-0.133	0.157	0.092	0.21	0.064	0.662
-0.093	0.101	0.194	-0.004	-0.144	0.148	-0.133	0.157	0.089	0.206	0.058	0.656
-0.104	0.1	0.203	0.003	-0.154	0.152	-0.129	0.157	0.087	0.205	0.055	0.653
-0.107	0.095	0.202	0.006	-0.155	0.149	-0.121	0.159	0.089	0.204	0.053	0.649
-0.113	0.093	0.205	0.01	-0.16	0.149	-0.121	0.16	0.088	0.202	0.049	0.646
-0.117	0.087	0.204	0.015	-0.161	0.146	-0.117	0.16	0.087	0.2	0.046	0.642
-0.121	0.085	0.205	0.018	-0.164	0.145	-0.111	0.162	0.087	0.198	0.043	0.64
-0.123	0.082	0.204	0.021	-0.165	0.144	-0.111	0.161	0.086	0.197	0.039	0.637
-0.128	0.081	0.207	0.024	-0.168	0.144	-0.107	0.164	0.087	0.198	0.04	0.635
-0.133	0.082	0.214	0.025	-0.174	0.148	-0.102	0.166	0.086	0.196	0.037	0.633
-0.137	0.082	0.217	0.027	-0.177	0.15	-0.102	0.16	0.081	0.188	0.029	0.624
-0.138	0.08	0.217	0.029	-0.178	0.149	-0.099	0.164	0.084	0.189	0.029	0.624
-0.139	0.077	0.214	0.031	-0.177	0.146	-0.093	0.167	0.084	0.19	0.028	0.624
-0.142	0.075	0.217	0.034	-0.18	0.146	-0.094	0.164	0.081	0.187	0.025	0.622
-0.142	0.072	0.214	0.035	-0.179	0.144	-0.093	0.165	0.082	0.188	0.025	0.62
-0.143	0.071	0.214	0.036	-0.179	0.143	-0.092	0.166	0.083	0.186	0.023	0.618
-0.145	0.07	0.215	0.037	-0.18	0.143	-0.09	0.166	0.081	0.184	0.021	0.617
-0.148	0.067	0.214	0.04	-0.181	0.141	-0.089	0.164	0.077	0.18	0.015	0.611
-0.15	0.061	0.211	0.044	-0.181	0.137	-0.088	0.164	0.076	0.178	0.015	0.609
-0.149	0.063	0.211	0.043	-0.18	0.138	-0.086	0.165	0.076	0.179	0.014	0.61
-0.151	0.064	0.214	0.044	-0.183	0.139	-0.084	0.165	0.075	0.179	0.013	0.608
-0.154	0.061	0.214	0.046	-0.185	0.139	-0.087	0.164	0.071	0.174	0.009	0.604
-0.153	0.06	0.213	0.046	-0.184	0.138	-0.086	0.162	0.069	0.172	0.004	0.601
-0.154	0.061	0.215	0.046	-0.185	0.139	-0.081	0.166	0.073	0.174	0.007	0.602
-0.166	0.065	0.23	0.05	-0.198	0.148	-0.08	0.165	0.072	0.173	0.005	0.6
-0.171	0.063	0.233	0.054	-0.203	0.148	-0.078	0.167	0.074	0.175	0.007	0.601
-0.174	0.059	0.232	0.058	-0.203	0.145	-0.079	0.168	0.073	0.173	0.006	0.6
-0.177	0.052	0.229	0.062	-0.203	0.141	-0.078	0.163	0.069	0.169	0.001	0.597
-0.167	0.051	0.217	0.058	-0.193	0.135	-0.08	0.161	0.066	0.167	-0.004	0.595
-0.153	0.052	0.205	0.051	-0.18	0.13	-0.081	0.16	0.065	0.165	-0.006	0.591
-0.15	0.054	0.204	0.048	-0.177	0.13	-0.079	0.161	0.066	0.164	-0.005	0.59
-0.157	0.058	0.214	0.05	-0.186	0.136	-0.076	0.166	0.07	0.17	-0.002	0.594
-0.158	0.057	0.214	0.051	-0.186	0.136	-0.072	0.169	0.073	0.173	0.002	0.597
-0.162	0.058	0.219	0.052	-0.191	0.139	-0.073	0.165	0.07	0.17	-0.003	0.594
-0.165	0.053	0.217	0.056	-0.192	0.136	-0.072	0.165	0.068	0.169	-0.003	0.594
-0.162	0.051	0.212	0.055	-0.188	0.133	-0.07	0.167	0.07	0.171	-0.002	0.595
-0.163	0.051	0.213	0.056	-0.189	0.133	-0.07	0.167	0.07	0.17	-0.003	0.593
-0.165	0.044	0.209	0.06	-0.187	0.127	-0.07	0.166	0.069	0.17	-0.003	0.592
-0.167	0.048	0.214	0.059	-0.192	0.132	-0.07	0.166	0.07	0.169	-0.003	0.591
-0.169	0.051	0.22	0.059	-0.195	0.136	-0.068	0.166	0.07	0.167	-0.004	0.59
-0.169	0.051	0.219	0.059	-0.194	0.136	-0.069	0.167	0.07	0.17	-0.003	0.592
-0.171	0.054	0.224	0.059	-0.198	0.139	-0.07	0.165	0.067	0.168	-0.006	0.59
-0.172	0.054	0.226	0.059	-0.2	0.141	-0.07	0.164	0.065	0.164	-0.009	0.586
-0.17	0.052	0.222	0.059	-0.197	0.138	-0.069	0.165	0.067	0.166	-0.007	0.586
-0.172	0.051	0.223	0.06	-0.198	0.138	-0.07	0.163	0.065	0.164	-0.009	0.585
-0.174	0.048	0.221	0.063	-0.198	0.135	-0.071	0.163	0.065	0.161	-0.011	0.584
-0.176	0.044	0.22	0.066	-0.199	0.133	-0.071	0.162	0.064	0.162	-0.013	0.583
-0.18	0.043	0.222	0.068	-0.202	0.134	-0.071	0.163	0.064	0.163	-0.01	0.586
-0.177	0.046	0.222	0.066	-0.2	0.135	-0.071	0.165	0.067	0.163	-0.009	0.586
-0.175	0.049	0.224	0.063	-0.2	0.137	-0.07	0.163	0.065	0.162	-0.011	0.583
-0.175	0.047	0.222	0.064	-0.199	0.135	-0.068	0.162	0.063	0.159	-0.013	0.584
-0.167	0.047	0.213	0.06	-0.191	0.131	-0.067	0.163	0.066	0.162	-0.011	0.587
-0.161	0.046	0.206	0.057	-0.184	0.127	-0.069	0.163	0.064	0.162	-0.011	0.585
-0.163	0.048	0.21	0.058	-0.187	0.129	-0.07	0.16	0.061	0.16	-0.015	0.583
-0.166	0.046	0.211	0.06	-0.19	0.13	-0.069	0.163	0.062	0.162	-0.012	0.585
-0.161	0.045	0.205	0.058	-0.183	0.126	-0.069	0.163	0.062	0.161	-0.012	0.585
-0.171	0.044	0.214	0.063	-0.193	0.13	-0.064	0.167	0.067	0.165	-0.006	0.589
-0.173	0.041	0.213	0.066	-0.194	0.128	-0.064	0.167	0.068	0.165	-0.007	0.589
-0.166	0.037	0.203	0.065	-0.185	0.12	-0.069	0.164	0.064	0.162	-0.013	0.586
-0.172	0.035	0.205	0.069	-0.189	0.12	-0.067	0.164	0.064	0.163	-0.011	0.586
-0.168	0.036	0.204	0.066	-0.186	0.121	-0.067	0.163	0.065	0.162	-0.01	0.589
-0.179	0.034	0.212	0.072	-0.196	0.123	-0.069	0.162	0.061	0.16	-0.013	0.587
-0.188	0.033	0.221	0.077	-0.205	0.128	-0.069	0.159	0.06	0.158	-0.016	0.583
-0.189	0.029	0.217	0.08	-0.203	0.123	-0.068	0.163	0.064	0.161	-0.013	0.584
-0.196	0.029	0.224	0.083	-0.21	0.127	-0.07	0.162	0.062	0.158	-0.015	0.583
-0.19	0.041	0.23	0.074	-0.21	0.136	-0.07	0.161	0.06	0.157	-0.017	0.582
-0.18	0.041	0.221	0.07	-0.201	0.132	-0.07	0.161	0.059	0.157	-0.017	0.583
-0.172	0.038	0.21	0.067	-0.192	0.125	-0.071	0.159	0.058	0.154	-0.019	0.581
-0.162	0.043	0.205	0.059	-0.184	0.125	-0.07	0.161	0.059	0.157	-0.016	0.582
-0.166	0.04	0.205	0.063	-0.186	0.123	-0.069	0.162	0.06	0.158	-0.015	0.583
-0.172	0.038	0.21	0.067	-0.192	0.125	-0.07	0.161	0.059	0.157	-0.018	0.581
-0.161	0.048	0.208	0.057	-0.185	0.129	-0.065	0.166	0.065	0.162	-0.013	0.585
-0.158	0.049	0.206	0.054	-0.182	0.128	-0.065	0.167	0.067	0.163	-0.012	0.588
-0.165	0.045	0.209	0.06	-0.187	0.128	-0.069	0.161	0.061	0.16	-0.015	0.585
-0.166	0.043	0.208	0.061	-0.188	0.126	-0.067	0.162	0.06	0.161	-0.016	0.587
-0.164	0.045	0.209	0.059	-0.188	0.128	-0.067	0.162	0.062	0.161	-0.016	0.587
-0.162	0.045	0.207	0.059	-0.185	0.127	-0.067	0.163	0.062	0.162	-0.014	0.586
-0.163	0.043	0.205	0.06	-0.184	0.124	-0.067	0.162	0.062	0.16	-0.015	0.585
-0.168	0.045	0.212	0.061	-0.19	0.129	-0.07	0.159	0.059	0.159	-0.015	0.582
-0.168	0.042	0.209	0.062	-0.189	0.126	-0.07	0.159	0.059	0.158	-0.015	0.583
-0.169	0.035	0.204	0.067	-0.187	0.12	-0.068	0.159	0.06	0.158	-0.017	0.585
-0.172	0.037	0.209	0.068	-0.192	0.124	-0.07	0.159	0.059	0.158	-0.018	0.582
-0.176	0.038	0.214	0.069	-0.195	0.127	-0.071	0.159	0.058	0.155	-0.018	0.58
-0.173	0.039	0.212	0.067	-0.193	0.126	-0.068	0.162	0.061	0.158	-0.016	0.583
-0.171	0.045	0.215	0.063	-0.194	0.131	-0.068	0.16	0.059	0.156	-0.019	0.583
-0.176	0.046	0.222	0.065	-0.2	0.134	-0.07	0.158	0.057	0.154	-0.022	0.581
-0.175	0.043	0.218	0.067	-0.198	0.132	-0.068	0.16	0.058	0.154	-0.021	0.579
-0.172	0.045	0.217	0.063	-0.195	0.132	-0.069	0.159	0.057	0.153	-0.021	0.58
-0.172	0.045	0.216	0.064	-0.195	0.131	-0.068	0.161	0.059	0.156	-0.019	0.582
-0.172	0.044	0.216	0.064	-0.195	0.131	-0.066	0.161	0.061	0.157	-0.02	0.583
-0.173	0.046	0.219	0.064	-0.197	0.133	-0.067	0.16	0.059	0.153	-0.021	0.582
-0.174	0.043	0.217	0.066	-0.197	0.131	-0.066	0.161	0.06	0.155	-0.019	0.581
-0.17	0.043	0.212	0.064	-0.192	0.129	-0.066	0.161	0.06	0.158	-0.018	0.583
-0.169	0.045	0.213	0.061	-0.191	0.13	-0.068	0.16	0.059	0.154	-0.019	0.582
-0.167	0.046	0.212	0.06	-0.19	0.13	-0.068	0.16	0.059	0.155	-0.02	0.583
-0.168	0.044	0.211	0.061	-0.19	0.129	-0.066	0.163	0.061	0.158	-0.018	0.586
-0.172	0.044	0.215	0.064	-0.194	0.131	-0.065	0.164	0.061	0.157	-0.018	0.586
-0.169	0.046	0.214	0.061	-0.192	0.131	-0.065	0.163	0.062	0.159	-0.017	0.586
-0.171	0.046	0.217	0.062	-0.195	0.132	-0.066	0.163	0.061	0.158	-0.018	0.586
-0.172	0.047	0.218	0.062	-0.196	0.133	-0.068	0.162	0.061	0.157	-0.018	0.584
-0.169	0.048	0.216	0.061	-0.193	0.132	-0.067	0.162	0.06	0.158	-0.016	0.585
-0.169	0.05	0.217	0.059	-0.194	0.134	-0.067	0.162	0.06	0.156	-0.019	0.585
-0.172	0.049	0.22	0.061	-0.196	0.135	-0.069	0.162	0.06	0.154	-0.021	0.582
-0.173	0.044	0.217	0.065	-0.196	0.132	-0.066	0.164	0.062	0.158	-0.018	0.583
-0.172	0.046	0.217	0.062	-0.195	0.133	-0.066	0.163	0.061	0.157	-0.018	0.581
-0.176	0.051	0.227	0.062	-0.202	0.14	-0.071	0.161	0.056	0.152	-0.022	0.577
-0.177	0.052	0.229	0.062	-0.203	0.141	-0.071	0.16	0.057	0.152	-0.022	0.578
-0.176	0.05	0.226	0.064	-0.202	0.138	-0.067	0.163	0.059	0.154	-0.021	0.58
-0.177	0.05	0.227	0.064	-0.203	0.139	-0.064	0.164	0.059	0.155	-0.019	0.581
-0.172	0.052	0.224	0.06	-0.199	0.139	-0.065	0.167	0.062	0.159	-0.016	0.583
-0.172	0.052	0.224	0.06	-0.199	0.139	-0.066	0.169	0.064	0.16	-0.016	0.582
-0.169	0.053	0.221	0.058	-0.196	0.138	-0.065	0.168	0.063	0.161	-0.013	0.584
-0.169	0.051	0.22	0.059	-0.195	0.136	-0.062	0.17	0.064	0.162	-0.013	0.585
-0.172	0.051	0.222	0.06	-0.197	0.137	-0.064	0.17	0.065	0.161	-0.015	0.586
-0.169	0.051	0.22	0.059	-0.195	0.136	-0.066	0.169	0.065	0.161	-0.015	0.586
-0.17	0.052	0.221	0.059	-0.196	0.137	-0.067	0.171	0.062	0.161	-0.014	0.586
-0.171	0.053	0.223	0.059	-0.197	0.139	-0.066	0.171	0.064	0.163	-0.013	0.588
-0.172	0.055	0.226	0.059	-0.2	0.141	-0.06	0.172	0.067	0.164	-0.011	0.589
-0.17	0.053	0.222	0.059	-0.197	0.138	-0.064	0.171	0.066	0.164	-0.01	0.589
-0.172	0.049	0.22	0.061	-0.197	0.135	-0.067	0.171	0.065	0.163	-0.011	0.589
-0.171	0.051	0.221	0.06	-0.196	0.136	-0.066	0.172	0.064	0.164	-0.011	0.588
-0.165	0.052	0.217	0.057	-0.192	0.136	-0.069	0.17	0.063	0.162	-0.011	0.587
-0.165	0.056	0.221	0.054	-0.194	0.139	-0.07	0.167	0.062	0.161	-0.013	0.586
-0.162	0.056	0.217	0.053	-0.19	0.137	-0.069	0.168	0.064	0.163	-0.011	0.586
-0.164	0.054	0.218	0.055	-0.192	0.137	-0.066	0.169	0.066	0.163	-0.011	0.586
-0.174	0.056	0.23	0.059	-0.202	0.143	-0.067	0.167	0.065	0.162	-0.011	0.587
-0.177	0.058	0.234	0.06	-0.206	0.147	-0.068	0.169	0.065	0.163	-0.012	0.587
-0.181	0.06	0.241	0.06	-0.211	0.151	-0.066	0.171	0.068	0.165	-0.009	0.591
-0.18	0.059	0.239	0.06	-0.21	0.149	-0.065	0.172	0.07	0.168	-0.006	0.592
-0.172	0.058	0.229	0.057	-0.201	0.143	-0.065	0.17	0.069	0.166	-0.007	0.589
-0.167	0.056	0.222	0.056	-0.195	0.14	-0.068	0.168	0.067	0.161	-0.009	0.587
-0.169	0.053	0.222	0.058	-0.196	0.138	-0.068	0.171	0.069	0.166	-0.007	0.589
-0.172	0.054	0.225	0.059	-0.199	0.14	-0.066	0.171	0.07	0.168	-0.004	0.592
-0.169	0.057	0.225	0.057	-0.198	0.141	-0.069	0.17	0.069	0.165	-0.006	0.59
-0.162	0.055	0.215	0.053	-0.189	0.136	-0.071	0.167	0.067	0.163	-0.009	0.587
-0.15	0.059	0.208	0.045	-0.18	0.134	-0.071	0.165	0.065	0.161	-0.01	0.587
-0.151	0.058	0.208	0.047	-0.18	0.134	-0.07	0.167	0.066	0.163	-0.009	0.587
-0.161	0.053	0.214	0.053	-0.188	0.135	-0.07	0.17	0.07	0.165	-0.006	0.59
-0.159	0.059	0.218	0.05	-0.189	0.139	-0.07	0.171	0.07	0.167	-0.004	0.591
-0.158	0.062	0.22	0.048	-0.189	0.141	-0.067	0.171	0.07	0.167	-0.004	0.59
-0.164	0.06	0.224	0.051	-0.194	0.142	-0.066	0.172	0.072	0.169	-0.001	0.594
-0.174	0.058	0.232	0.059	-0.203	0.145	-0.07	0.172	0.072	0.167	-0.003	0.595
-0.178	0.058	0.235	0.06	-0.207	0.147	-0.068	0.172	0.07	0.166	-0.003	0.594
-0.172	0.06	0.233	0.056	-0.203	0.147	-0.067	0.173	0.07	0.17	-0.001	0.593
-0.162	0.061	0.223	0.051	-0.193	0.142	-0.07	0.17	0.069	0.167	-0.004	0.591
-0.158	0.065	0.222	0.047	-0.191	0.143	-0.074	0.168	0.067	0.164	-0.006	0.589
-0.159	0.067	0.225	0.046	-0.192	0.146	-0.077	0.165	0.065	0.159	-0.01	0.586
-0.152	0.067	0.218	0.043	-0.185	0.143	-0.077	0.165	0.065	0.159	-0.009	0.587
-0.159	0.064	0.223	0.047	-0.191	0.143	-0.074	0.167	0.069	0.164	-0.005	0.591
-0.163	0.066	0.229	0.048	-0.196	0.148	-0.07	0.169	0.07	0.165	-0.004	0.592
-0.164	0.069	0.232	0.048	-0.199	0.151	-0.073	0.167	0.07	0.165	-0.003	0.59
-0.166	0.065	0.23	0.051	-0.198	0.147	-0.071	0.169	0.07	0.167	-0.001	0.593
-0.159	0.069	0.227	0.045	-0.194	0.148	-0.067	0.174	0.075	0.172	0.003	0.598
-0.16	0.07	0.23	0.045	-0.196	0.151	-0.069	0.172	0.073	0.171	0.003	0.598
-0.16	0.064	0.223	0.048	-0.192	0.143	-0.071	0.171	0.07	0.17	0.001	0.596
-0.158	0.059	0.216	0.05	-0.188	0.138	-0.072	0.17	0.07	0.169	-0.001	0.596
-0.157	0.059	0.215	0.049	-0.186	0.138	-0.074	0.167	0.068	0.166	-0.002	0.593
-0.157	0.064	0.22	0.046	-0.189	0.142	-0.072	0.168	0.068	0.166	-0.002	0.593
-0.158	0.061	0.218	0.048	-0.189	0.141	-0.073	0.17	0.07	0.167	-0.001	0.595
-0.158	0.06	0.218	0.049	-0.189	0.14	-0.074	0.17	0.07	0.168	0	0.598
-0.16	0.061	0.22	0.049	-0.19	0.141	-0.073	0.168	0.07	0.171	0.002	0.6
-0.162	0.065	0.226	0.049	-0.195	0.146	-0.074	0.166	0.068	0.167	-0.002	0.597
-0.167	0.068	0.234	0.049	-0.201	0.151	-0.073	0.167	0.068	0.168	-0.003	0.597
-0.16	0.064	0.224	0.048	-0.193	0.144	-0.074	0.167	0.068	0.167	-0.003	0.595
-0.168	0.061	0.229	0.053	-0.199	0.145	-0.07	0.17	0.07	0.168	-0.001	0.597
-0.174	0.06	0.234	0.057	-0.204	0.148	-0.069	0.17	0.07	0.169	0.001	0.601
-0.169	0.064	0.232	0.052	-0.201	0.148	-0.074	0.164	0.065	0.164	-0.005	0.594
-0.171	0.063	0.233	0.053	-0.202	0.148	-0.073	0.164	0.066	0.164	-0.004	0.593
-0.167	0.06	0.227	0.053	-0.197	0.144	-0.074	0.164	0.066	0.164	-0.004	0.593
-0.162	0.063	0.224	0.049	-0.194	0.144	-0.075	0.164	0.067	0.165	-0.004	0.595
-0.158	0.067	0.224	0.045	-0.192	0.146	-0.072	0.166	0.068	0.165	-0.003	0.595
-0.157	0.065	0.221	0.045	-0.189	0.143	-0.072	0.165	0.068	0.165	-0.004	0.594
-0.154	0.064	0.217	0.045	-0.186	0.141	-0.072	0.166	0.069	0.166	0.001	0.598
-0.159	0.067	0.225	0.046	-0.193	0.146	-0.071	0.166	0.07	0.167	0.002	0.599
-0.159	0.066	0.224	0.046	-0.192	0.145	-0.072	0.167	0.072	0.169	0.004	0.602
-0.154	0.063	0.217	0.045	-0.186	0.141	-0.071	0.169	0.073	0.169	0.005	0.603
-0.154	0.064	0.217	0.045	-0.186	0.141	-0.07	0.168	0.073	0.168	0.004	0.604
-0.151	0.066	0.216	0.043	-0.184	0.141	-0.071	0.167	0.07	0.168	0.004	0.602
-0.148	0.069	0.216	0.04	-0.182	0.142	-0.072	0.168	0.071	0.167	0.004	0.601
-0.144	0.071	0.215	0.036	-0.18	0.144	-0.07	0.168	0.072	0.17	0.007	0.604
-0.147	0.068	0.214	0.04	-0.181	0.141	-0.07	0.168	0.071	0.169	0.006	0.604
-0.155	0.066	0.221	0.044	-0.189	0.144	-0.07	0.166	0.07	0.167	0.004	0.603
-0.16	0.07	0.229	0.045	-0.195	0.149	-0.067	0.169	0.073	0.169	0.005	0.605
-0.161	0.069	0.23	0.045	-0.196	0.15	-0.068	0.17	0.073	0.169	0.006	0.605
-0.16	0.07	0.231	0.045	-0.196	0.151	-0.07	0.167	0.071	0.169	0.006	0.602
-0.161	0.068	0.229	0.046	-0.196	0.148	-0.072	0.165	0.068	0.165	0.003	0.6
-0.158	0.069	0.226	0.044	-0.193	0.147	-0.078	0.16	0.062	0.16	-0.003	0.595
-0.153	0.069	0.221	0.043	-0.188	0.145	-0.078	0.16	0.062	0.161	-0.004	0.592
-0.15	0.065	0.214	0.043	-0.182	0.14	-0.077	0.161	0.064	0.164	-0.002	0.592
-0.151	0.065	0.216	0.043	-0.184	0.141	-0.077	0.16	0.062	0.163	-0.002	0.593
-0.156	0.061	0.217	0.047	-0.187	0.14	-0.077	0.161	0.061	0.161	-0.003	0.593
-0.15	0.06	0.21	0.045	-0.181	0.136	-0.077	0.159	0.061	0.16	-0.004	0.593
-0.149	0.061	0.21	0.043	-0.18	0.137	-0.073	0.163	0.065	0.164	-0.003	0.594
-0.158	0.065	0.223	0.046	-0.191	0.144	-0.07	0.166	0.068	0.166	-0.001	0.598
-0.156	0.069	0.224	0.043	-0.19	0.146	-0.07	0.165	0.067	0.167	0.001	0.599
-0.149	0.068	0.217	0.041	-0.183	0.143	-0.071	0.163	0.064	0.163	-0.002	0.596
-0.147	0.067	0.213	0.041	-0.181	0.141	-0.071	0.161	0.062	0.162	-0.003	0.594
-0.147	0.065	0.211	0.042	-0.18	0.139	-0.071	0.163	0.063	0.164	-0.001	0.595
-0.151	0.064	0.214	0.043	-0.183	0.14	-0.07	0.163	0.064	0.165	0	0.597
-0.153	0.06	0.213	0.046	-0.184	0.137	-0.071	0.161	0.061	0.165	-0.002	0.596
-0.153	0.06	0.213	0.046	-0.184	0.138	-0.069	0.164	0.066	0.168	0.003	0.599
-0.152	0.066	0.217	0.043	-0.185	0.142	-0.068	0.163	0.065	0.166	0.003	0.598
-0.158	0.062	0.22	0.048	-0.189	0.141	-0.073	0.159	0.061	0.161	-0.003	0.592
-0.162	0.057	0.218	0.052	-0.191	0.139	-0.07	0.161	0.064	0.164	-0.002	0.595
-0.161	0.06	0.22	0.051	-0.191	0.141	-0.068	0.165	0.066	0.166	0	0.597
-0.161	0.061	0.221	0.05	-0.191	0.141	-0.068	0.164	0.065	0.164	-0.001	0.597
-0.163	0.062	0.225	0.05	-0.194	0.144	-0.069	0.16	0.061	0.16	-0.004	0.594
-0.163	0.065	0.227	0.049	-0.195	0.146	-0.072	0.16	0.061	0.16	-0.004	0.594
-0.157	0.064	0.221	0.046	-0.19	0.142	-0.07	0.163	0.065	0.165	-0.003	0.596
-0.156	0.065	0.221	0.045	-0.189	0.143	-0.069	0.162	0.065	0.163	-0.003	0.596
-0.157	0.066	0.222	0.045	-0.19	0.144	-0.069	0.162	0.065	0.164	-0.002	0.596
-0.157	0.066	0.223	0.045	-0.191	0.144	-0.068	0.164	0.066	0.166	-0.001	0.596
-0.154	0.071	0.225	0.042	-0.191	0.148	-0.068	0.165	0.066	0.166	0.001	0.598
-0.154	0.077	0.232	0.038	-0.194	0.155	-0.071	0.164	0.066	0.167	0.002	0.6
-0.153	0.083	0.234	0.035	-0.195	0.159	-0.073	0.163	0.064	0.166	0.001	0.6
-0.151	0.086	0.236	0.033	-0.194	0.161	-0.072	0.164	0.068	0.169	0.004	0.604
-0.152	0.086	0.237	0.033	-0.195	0.162	-0.07	0.167	0.07	0.171	0.007	0.606
-0.148	0.09	0.238	0.029	-0.194	0.165	-0.073	0.167	0.07	0.172	0.007	0.607
-0.147	0.1	0.246	0.024	-0.198	0.174	-0.076	0.169	0.072	0.172	0.009	0.61
-0.145	0.103	0.248	0.021	-0.197	0.176	-0.077	0.169	0.072	0.175	0.011	0.612
-0.137	0.107	0.243	0.015	-0.191	0.176	-0.077	0.167	0.073	0.175	0.011	0.612
-0.134	0.114	0.246	0.01	-0.191	0.18	-0.077	0.168	0.072	0.173	0.009	0.612
-0.132	0.114	0.245	0.009	-0.189	0.18	-0.08	0.168	0.07	0.172	0.007	0.608
-0.118	0.112	0.23	0.003	-0.174	0.171	-0.084	0.168	0.071	0.172	0.007	0.607
-0.112	0.117	0.228	-0.002	-0.171	0.172	-0.086	0.168	0.073	0.173	0.009	0.609
-0.111	0.121	0.231	-0.005	-0.172	0.176	-0.087	0.172	0.077	0.175	0.011	0.61
-0.111	0.12	0.231	-0.004	-0.172	0.176	-0.086	0.176	0.081	0.179	0.014	0.614
-0.116	0.122	0.238	-0.003	-0.178	0.181	-0.086	0.177	0.083	0.18	0.014	0.614
-0.117	0.122	0.239	-0.003	-0.178	0.181	-0.084	0.181	0.085	0.183	0.017	0.616
-0.117	0.123	0.239	-0.003	-0.178	0.181	-0.082	0.181	0.085	0.184	0.018	0.617
-0.115	0.124	0.239	-0.005	-0.177	0.182	-0.081	0.181	0.086	0.183	0.017	0.615
-0.111	0.129	0.239	-0.009	-0.175	0.184	-0.081	0.185	0.086	0.186	0.019	0.616
-0.11	0.129	0.237	-0.009	-0.174	0.183	-0.077	0.188	0.088	0.189	0.021	0.617
-0.114	0.128	0.241	-0.006	-0.178	0.184	-0.076	0.188	0.086	0.188	0.019	0.617
-0.112	0.128	0.239	-0.008	-0.176	0.184	-0.079	0.186	0.086	0.188	0.019	0.617
-0.108	0.127	0.234	-0.009	-0.172	0.18	-0.08	0.19	0.09	0.191	0.021	0.619
-0.112	0.126	0.236	-0.007	-0.174	0.182	-0.08	0.193	0.092	0.192	0.024	0.62
-0.107	0.128	0.234	-0.011	-0.171	0.181	-0.08	0.195	0.096	0.197	0.027	0.621
-0.104	0.133	0.236	-0.015	-0.171	0.185	-0.083	0.196	0.098	0.198	0.029	0.625
-0.103	0.134	0.236	-0.015	-0.17	0.185	-0.086	0.196	0.096	0.197	0.03	0.625
-0.1	0.134	0.233	-0.017	-0.167	0.183	-0.087	0.197	0.097	0.2	0.031	0.626
-0.096	0.139	0.235	-0.021	-0.166	0.188	-0.09	0.198	0.099	0.199	0.032	0.627
-0.098	0.138	0.235	-0.02	-0.168	0.188	-0.094	0.197	0.096	0.197	0.03	0.625
-0.102	0.134	0.235	-0.016	-0.17	0.185	-0.098	0.194	0.095	0.195	0.029	0.625
-0.105	0.137	0.241	-0.016	-0.174	0.19	-0.101	0.191	0.092	0.194	0.029	0.624
-0.106	0.144	0.249	-0.019	-0.178	0.197	-0.107	0.185	0.089	0.192	0.027	0.623
-0.106	0.15	0.256	-0.022	-0.181	0.203	-0.113	0.184	0.091	0.192	0.029	0.625
-0.115	0.154	0.268	-0.019	-0.192	0.211	-0.115	0.185	0.092	0.19	0.029	0.624
-0.115	0.157	0.272	-0.021	-0.194	0.214	-0.114	0.184	0.092	0.193	0.029	0.626
-0.113	0.157	0.269	-0.022	-0.192	0.214	-0.115	0.184	0.092	0.195	0.033	0.629
-0.106	0.167	0.273	-0.03	-0.19	0.22	-0.12	0.184	0.092	0.195	0.034	0.632
-0.1	0.175	0.274	-0.037	-0.188	0.225	-0.122	0.185	0.095	0.199	0.037	0.636
-0.09	0.175	0.266	-0.043	-0.178	0.221	-0.124	0.188	0.099	0.202	0.041	0.638
-0.086	0.184	0.27	-0.049	-0.178	0.228	-0.133	0.185	0.1	0.204	0.043	0.643
-0.079	0.189	0.266	-0.055	-0.173	0.228	-0.142	0.18	0.098	0.203	0.046	0.646
-0.059	0.194	0.253	-0.067	-0.157	0.224	-0.149	0.175	0.095	0.201	0.044	0.647
-0.064	0.198	0.261	-0.068	-0.163	0.23	-0.151	0.173	0.093	0.202	0.046	0.65
-0.067	0.196	0.262	-0.065	-0.165	0.23	-0.152	0.175	0.095	0.203	0.049	0.65
-0.066	0.196	0.261	-0.065	-0.164	0.229	-0.153	0.174	0.095	0.203	0.049	0.651
-0.067	0.195	0.262	-0.064	-0.165	0.229	-0.154	0.172	0.093	0.202	0.049	0.653
-0.059	0.196	0.255	-0.068	-0.158	0.226	-0.154	0.17	0.092	0.202	0.047	0.651
-0.053	0.197	0.251	-0.071	-0.152	0.224	-0.16	0.166	0.088	0.198	0.044	0.648
-0.058	0.198	0.256	-0.07	-0.158	0.227	-0.162	0.164	0.087	0.197	0.043	0.648
-0.059	0.201	0.259	-0.071	-0.159	0.23	-0.158	0.167	0.092	0.203	0.051	0.655
-0.057	0.203	0.26	-0.073	-0.159	0.232	-0.157	0.17	0.098	0.208	0.058	0.661
-0.051	0.21	0.26	-0.08	-0.155	0.236	-0.158	0.168	0.097	0.209	0.058	0.662
-0.044	0.212	0.256	-0.084	-0.15	0.234	-0.162	0.161	0.092	0.206	0.056	0.663
-0.047	0.208	0.255	-0.081	-0.151	0.232	-0.168	0.152	0.087	0.201	0.051	0.658
-0.042	0.207	0.249	-0.083	-0.146	0.229	-0.172	0.149	0.083	0.198	0.049	0.656
-0.04	0.201	0.24	-0.081	-0.141	0.222	-0.171	0.15	0.085	0.201	0.05	0.658
-0.035	0.194	0.228	-0.08	-0.132	0.211	-0.168	0.15	0.085	0.2	0.048	0.655
-0.026	0.18	0.206	-0.077	-0.117	0.194	-0.168	0.151	0.084	0.199	0.045	0.652
-0.026	0.169	0.194	-0.071	-0.111	0.181	-0.166	0.151	0.083	0.199	0.043	0.65
-0.035	0.166	0.201	-0.065	-0.119	0.184	-0.163	0.152	0.084	0.198	0.043	0.651
-0.041	0.163	0.203	-0.06	-0.122	0.183	-0.161	0.152	0.084	0.198	0.042	0.651
-0.041	0.16	0.201	-0.059	-0.121	0.18	-0.162	0.15	0.084	0.197	0.043	0.65
-0.044	0.158	0.202	-0.057	-0.123	0.18	-0.161	0.152	0.085	0.198	0.043	0.651
-0.042	0.154	0.195	-0.056	-0.118	0.174	-0.158	0.152	0.082	0.197	0.042	0.649
-0.048	0.153	0.2	-0.052	-0.124	0.176	-0.154	0.152	0.083	0.196	0.043	0.649
-0.054	0.153	0.206	-0.05	-0.131	0.18	-0.151	0.154	0.084	0.197	0.043	0.651
-0.048	0.149	0.197	-0.051	-0.122	0.173	-0.155	0.15	0.08	0.195	0.041	0.65
-0.043	0.147	0.191	-0.052	-0.117	0.17	-0.158	0.147	0.078	0.191	0.039	0.647
-0.045	0.146	0.192	-0.051	-0.119	0.169	-0.154	0.147	0.077	0.192	0.036	0.645
-0.047	0.143	0.19	-0.049	-0.119	0.167	-0.151	0.147	0.076	0.19	0.033	0.642
-0.051	0.138	0.189	-0.043	-0.12	0.164	-0.147	0.147	0.076	0.19	0.034	0.641
-0.06	0.135	0.195	-0.037	-0.128	0.166	-0.147	0.147	0.077	0.191	0.033	0.643
-0.063	0.13	0.192	-0.034	-0.128	0.162	-0.145	0.146	0.076	0.189	0.032	0.641
-0.063	0.123	0.186	-0.03	-0.126	0.155	-0.144	0.145	0.073	0.185	0.028	0.638
-0.07	0.12	0.191	-0.025	-0.131	0.156	-0.143	0.143	0.07	0.183	0.024	0.634
-0.074	0.114	0.188	-0.019	-0.132	0.151	-0.138	0.145	0.071	0.184	0.025	0.633
-0.07	0.112	0.182	-0.021	-0.127	0.147	-0.137	0.141	0.065	0.177	0.018	0.628
-0.074	0.103	0.176	-0.015	-0.126	0.141	-0.134	0.139	0.062	0.175	0.015	0.625
-0.08	0.09	0.17	-0.005	-0.125	0.131	-0.133	0.14	0.062	0.174	0.015	0.623
-0.081	0.088	0.169	-0.004	-0.125	0.129	-0.134	0.132	0.055	0.167	0.009	0.617
-0.093	0.083	0.175	0.005	-0.135	0.13	-0.127	0.134	0.055	0.167	0.008	0.616
-0.105	0.077	0.182	0.013	-0.144	0.13	-0.118	0.134	0.053	0.166	0.005	0.613
-0.114	0.077	0.19	0.018	-0.152	0.134	-0.114	0.132	0.05	0.162	0.002	0.61
-0.124	0.075	0.199	0.025	-0.162	0.138	-0.11	0.136	0.052	0.163	0.003	0.609
-0.132	0.071	0.202	0.03	-0.167	0.137	-0.104	0.137	0.051	0.162	-0.001	0.608
-0.143	0.074	0.216	0.035	-0.18	0.146	-0.098	0.139	0.053	0.161	-0.002	0.607
-0.152	0.072	0.224	0.04	-0.189	0.148	-0.094	0.139	0.052	0.162	-0.002	0.607
-0.151	0.07	0.221	0.041	-0.187	0.146	-0.096	0.134	0.046	0.154	-0.009	0.6
-0.146	0.069	0.214	0.038	-0.181	0.142	-0.098	0.131	0.042	0.146	-0.017	0.592
-0.132	0.065	0.196	0.034	-0.164	0.131	-0.096	0.128	0.037	0.144	-0.019	0.587
-0.129	0.062	0.191	0.033	-0.161	0.128	-0.092	0.127	0.035	0.142	-0.024	0.581
-0.139	0.061	0.199	0.038	-0.169	0.131	-0.092	0.127	0.035	0.141	-0.026	0.579
-0.148	0.06	0.207	0.044	-0.178	0.134	-0.089	0.128	0.036	0.141	-0.025	0.58
-0.157	0.058	0.214	0.049	-0.185	0.137	-0.087	0.129	0.037	0.143	-0.024	0.581
-0.161	0.058	0.219	0.051	-0.191	0.139	-0.088	0.127	0.036	0.139	-0.027	0.578
-0.163	0.052	0.214	0.055	-0.189	0.134	-0.086	0.128	0.036	0.141	-0.028	0.578
-0.162	0.048	0.209	0.058	-0.186	0.129	-0.085	0.13	0.037	0.141	-0.027	0.577
-0.165	0.046	0.211	0.059	-0.189	0.129	-0.084	0.131	0.038	0.14	-0.027	0.575
-0.167	0.042	0.208	0.062	-0.189	0.126	-0.08	0.132	0.04	0.142	-0.027	0.576
-0.169	0.042	0.21	0.064	-0.191	0.127	-0.081	0.131	0.036	0.139	-0.029	0.572
-0.165	0.04	0.205	0.062	-0.185	0.123	-0.082	0.132	0.035	0.139	-0.029	0.572
-0.162	0.036	0.198	0.063	-0.18	0.117	-0.081	0.13	0.035	0.139	-0.032	0.571
-0.162	0.036	0.198	0.063	-0.181	0.118	-0.079	0.13	0.034	0.138	-0.032	0.57
-0.164	0.037	0.2	0.064	-0.182	0.119	-0.08	0.131	0.035	0.139	-0.032	0.571
-0.17	0.035	0.205	0.067	-0.188	0.12	-0.079	0.132	0.035	0.138	-0.032	0.571
-0.177	0.034	0.21	0.071	-0.194	0.122	-0.076	0.133	0.036	0.138	-0.03	0.572
-0.177	0.035	0.211	0.071	-0.195	0.123	-0.075	0.134	0.037	0.141	-0.029	0.575
-0.175	0.037	0.212	0.069	-0.194	0.126	-0.074	0.134	0.036	0.141	-0.028	0.576
-0.173	0.037	0.21	0.068	-0.193	0.124	-0.076	0.133	0.035	0.137	-0.032	0.574
-0.164	0.036	0.201	0.064	-0.183	0.119	-0.075	0.132	0.035	0.136	-0.034	0.571
-0.163	0.037	0.199	0.062	-0.181	0.118	-0.075	0.132	0.034	0.136	-0.034	0.569
-0.164	0.039	0.203	0.062	-0.184	0.121	-0.074	0.132	0.034	0.136	-0.035	0.568
-0.17	0.036	0.206	0.067	-0.188	0.121	-0.074	0.131	0.033	0.134	-0.035	0.568
-0.176	0.033	0.209	0.072	-0.194	0.121	-0.074	0.131	0.034	0.134	-0.035	0.57
-0.182	0.035	0.216	0.073	-0.2	0.126	-0.073	0.131	0.033	0.133	-0.036	0.568
-0.185	0.034	0.218	0.076	-0.203	0.127	-0.076	0.13	0.032	0.133	-0.035	0.568
-0.178	0.032	0.21	0.073	-0.195	0.121	-0.073	0.132	0.033	0.133	-0.036	0.566
-0.174	0.035	0.209	0.07	-0.192	0.122	-0.07	0.133	0.033	0.135	-0.035	0.566
-0.173	0.037	0.209	0.068	-0.192	0.123	-0.066	0.139	0.037	0.139	-0.029	0.572
-0.17	0.038	0.208	0.066	-0.19	0.124	-0.07	0.136	0.035	0.137	-0.031	0.57
-0.172	0.04	0.21	0.066	-0.192	0.126	-0.07	0.134	0.035	0.138	-0.03	0.571
-0.174	0.035	0.209	0.07	-0.192	0.123	-0.069	0.136	0.036	0.14	-0.029	0.572
-0.178	0.029	0.206	0.075	-0.193	0.117	-0.07	0.136	0.035	0.139	-0.029	0.571
-0.177	0.028	0.204	0.075	-0.191	0.116	-0.066	0.138	0.037	0.14	-0.026	0.571
-0.175	0.027	0.202	0.074	-0.19	0.116	-0.07	0.133	0.035	0.137	-0.03	0.569
-0.176	0.025	0.202	0.075	-0.19	0.114	-0.07	0.132	0.035	0.136	-0.03	0.569
-0.177	0.027	0.204	0.075	-0.191	0.116	-0.07	0.135	0.035	0.136	-0.029	0.571
-0.177	0.029	0.205	0.074	-0.192	0.117	-0.071	0.132	0.034	0.135	-0.03	0.57
-0.177	0.028	0.205	0.075	-0.192	0.117	-0.073	0.131	0.032	0.134	-0.032	0.568
-0.179	0.026	0.205	0.076	-0.193	0.116	-0.071	0.133	0.034	0.135	-0.032	0.567
-0.178	0.028	0.205	0.075	-0.192	0.117	-0.069	0.133	0.035	0.134	-0.032	0.566
-0.175	0.029	0.203	0.073	-0.19	0.117	-0.071	0.134	0.034	0.134	-0.033	0.568
-0.174	0.03	0.203	0.072	-0.189	0.117	-0.071	0.132	0.033	0.133	-0.035	0.566
-0.174	0.033	0.207	0.07	-0.191	0.12	-0.07	0.133	0.034	0.136	-0.033	0.566
-0.176	0.035	0.211	0.071	-0.195	0.124	-0.07	0.133	0.034	0.135	-0.035	0.565
-0.181	0.035	0.216	0.073	-0.199	0.126	-0.069	0.132	0.033	0.134	-0.036	0.564
-0.185	0.035	0.221	0.075	-0.203	0.129	-0.064	0.137	0.038	0.139	-0.032	0.569
-0.185	0.034	0.219	0.076	-0.203	0.127	-0.066	0.135	0.035	0.136	-0.034	0.565
-0.185	0.03	0.215	0.077	-0.201	0.123	-0.07	0.133	0.032	0.135	-0.035	0.563
-0.186	0.029	0.215	0.079	-0.201	0.122	-0.071	0.133	0.033	0.135	-0.035	0.565
-0.186	0.026	0.212	0.08	-0.2	0.12	-0.07	0.136	0.035	0.136	-0.033	0.566
-0.179	0.03	0.209	0.075	-0.195	0.12	-0.066	0.137	0.036	0.138	-0.032	0.568
-0.177	0.031	0.208	0.073	-0.194	0.12	-0.068	0.137	0.037	0.138	-0.032	0.568
-0.178	0.028	0.205	0.075	-0.193	0.117	-0.065	0.139	0.037	0.139	-0.032	0.569
-0.181	0.029	0.209	0.076	-0.196	0.119	-0.062	0.138	0.035	0.138	-0.034	0.568
-0.199	0.026	0.225	0.086	-0.212	0.126	-0.061	0.141	0.039	0.141	-0.029	0.571
-0.207	0.029	0.235	0.089	-0.222	0.133	-0.057	0.145	0.042	0.145	-0.027	0.575
-0.211	0.029	0.239	0.091	-0.226	0.135	-0.057	0.145	0.043	0.145	-0.028	0.576
-0.211	0.029	0.239	0.091	-0.226	0.134	-0.059	0.145	0.043	0.143	-0.027	0.576
-0.21	0.025	0.235	0.092	-0.223	0.131	-0.056	0.146	0.043	0.145	-0.025	0.577
-0.21	0.024	0.234	0.093	-0.223	0.13	-0.057	0.143	0.043	0.143	-0.029	0.573
-0.189	0.029	0.217	0.081	-0.203	0.123	-0.065	0.135	0.035	0.135	-0.035	0.567
-0.144	0.03	0.174	0.057	-0.16	0.103	-0.079	0.122	0.022	0.122	-0.048	0.553
-0.127	0.033	0.159	0.047	-0.143	0.097	-0.085	0.118	0.017	0.118	-0.053	0.547
-0.15	0.035	0.184	0.058	-0.168	0.111	-0.075	0.126	0.025	0.126	-0.045	0.556
-0.17	0.036	0.206	0.067	-0.188	0.121	-0.071	0.129	0.029	0.129	-0.042	0.559
-0.182	0.035	0.217	0.074	-0.2	0.127	-0.068	0.135	0.035	0.136	-0.037	0.564
-0.182	0.033	0.214	0.074	-0.199	0.124	-0.061	0.14	0.037	0.141	-0.033	0.567
-0.174	0.03	0.203	0.072	-0.189	0.117	-0.062	0.14	0.038	0.139	-0.032	0.567
-0.17	0.029	0.199	0.071	-0.184	0.114	-0.065	0.138	0.035	0.136	-0.035	0.566
-0.167	0.026	0.193	0.07	-0.18	0.11	-0.067	0.134	0.033	0.135	-0.037	0.565
-0.172	0.024	0.197	0.074	-0.185	0.111	-0.064	0.134	0.035	0.136	-0.035	0.566
-0.173	0.023	0.196	0.075	-0.185	0.111	-0.067	0.133	0.033	0.134	-0.036	0.565
-0.172	0.022	0.193	0.075	-0.183	0.108	-0.068	0.131	0.032	0.134	-0.038	0.562
-0.174	0.025	0.2	0.074	-0.188	0.114	-0.065	0.134	0.035	0.137	-0.034	0.566
-0.18	0.028	0.206	0.076	-0.194	0.117	-0.061	0.137	0.036	0.137	-0.034	0.568
-0.184	0.029	0.212	0.078	-0.199	0.121	-0.058	0.14	0.038	0.141	-0.033	0.569
-0.187	0.034	0.221	0.076	-0.204	0.128	-0.057	0.141	0.037	0.14	-0.034	0.569
-0.19	0.04	0.229	0.075	-0.209	0.135	-0.058	0.134	0.029	0.129	-0.043	0.559
-0.193	0.047	0.239	0.073	-0.217	0.144	-0.057	0.128	0.021	0.118	-0.054	0.549
-0.204	0.06	0.264	0.071	-0.234	0.163	-0.048	0.127	0.016	0.112	-0.064	0.541
-0.216	0.073	0.289	0.071	-0.254	0.181	-0.04	0.127	0.009	0.104	-0.073	0.531
-0.241	0.075	0.317	0.083	-0.28	0.197	-0.029	0.132	0.007	0.097	-0.084	0.52
-0.26	0.08	0.34	0.089	-0.3	0.21	-0.015	0.136	0.004	0.086	-0.098	0.504
-0.264	0.102	0.366	0.081	-0.316	0.234	-0.006	0.135	-0.003	0.073	-0.115	0.487
-0.269	0.126	0.395	0.071	-0.332	0.261	-0.004	0.138	-0.004	0.067	-0.124	0.477
-0.269	0.143	0.411	0.062	-0.341	0.278	0.003	0.152	0.005	0.073	-0.122	0.474
-0.265	0.16	0.423	0.052	-0.344	0.291	0.013	0.17	0.019	0.086	-0.115	0.48
-0.256	0.175	0.431	0.04	-0.344	0.304	0.017	0.181	0.029	0.092	-0.109	0.485
-0.251	0.191	0.441	0.03	-0.346	0.317	0.018	0.2	0.042	0.104	-0.102	0.49
-0.234	0.208	0.442	0.013	-0.339	0.325	0.016	0.223	0.07	0.131	-0.073	0.513
-0.199	0.218	0.416	-0.01	-0.308	0.318	0.008	0.252	0.107	0.17	-0.033	0.547
-0.162	0.209	0.37	-0.024	-0.267	0.29	-0.002	0.296	0.159	0.224	0.019	0.586
-0.127	0.205	0.332	-0.039	-0.23	0.27	0.003	0.347	0.218	0.28	0.073	0.621
-0.075	0.207	0.281	-0.066	-0.178	0.244	0.005	0.401	0.281	0.344	0.136	0.666
-0.024	0.209	0.232	-0.092	-0.128	0.221	-0.002	0.444	0.34	0.407	0.205	0.723
0.018	0.223	0.205	-0.12	-0.094	0.214	-0.013	0.473	0.381	0.456	0.26	0.773
0.07	0.245	0.174	-0.158	-0.052	0.21	-0.042	0.495	0.422	0.511	0.331	0.843
0.129	0.259	0.13	-0.194	-0.002	0.195	-0.074	0.521	0.476	0.576	0.414	0.921
0.205	0.277	0.072	-0.24	0.066	0.174	-0.104	0.564	0.542	0.656	0.512	1.01
0.283	0.305	0.022	-0.294	0.131	0.164	-0.136	0.6	0.609	0.74	0.617	1.111
0.357	0.327	-0.03	-0.342	0.194	0.148	-0.161	0.646	0.681	0.828	0.723	1.211
0.433	0.345	-0.088	-0.39	0.261	0.129	-0.178	0.713	0.773	0.931	0.843	1.312
0.517	0.36	-0.157	-0.439	0.337	0.102	-0.207	0.776	0.87	1.045	0.975	1.425
0.599	0.379	-0.22	-0.489	0.408	0.08	-0.226	0.848	0.966	1.156	1.105	1.539
0.668	0.409	-0.261	-0.539	0.464	0.074	-0.252	0.892	1.036	1.237	1.207	1.631
0.738	0.447	-0.291	-0.593	0.514	0.077	-0.292	0.902	1.07	1.288	1.282	1.708
0.789	0.478	-0.311	-0.633	0.549	0.084	-0.321	0.904	1.087	1.319	1.335	1.775
0.826	0.511	-0.315	-0.668	0.57	0.099	-0.352	0.898	1.105	1.349	1.383	1.831
0.872	0.561	-0.311	-0.716	0.591	0.125	-0.396	0.877	1.109	1.373	1.428	1.881
0.922	0.609	-0.314	-0.765	0.618	0.148	-0.443	0.858	1.123	1.409	1.492	1.96
0.955	0.658	-0.296	-0.806	0.625	0.181	-0.502	0.805	1.106	1.417	1.53	2.021
0.985	0.709	-0.277	-0.847	0.63	0.216	-0.565	0.723	1.054	1.387	1.526	2.042
1.018	0.734	-0.285	-0.876	0.651	0.225	-0.601	0.671	1.023	1.373	1.53	2.059
1.032	0.726	-0.306	-0.878	0.668	0.21	-0.622	0.628	0.993	1.355	1.522	2.061
1.024	0.709	-0.317	-0.867	0.67	0.197	-0.642	0.563	0.94	1.313	1.492	2.043
0.997	0.706	-0.291	-0.852	0.643	0.208	-0.667	0.458	0.836	1.219	1.407	1.991
0.995	0.672	-0.323	-0.834	0.658	0.175	-0.68	0.38	0.753	1.137	1.323	1.922
1.018	0.579	-0.439	-0.798	0.728	0.07	-0.678	0.316	0.676	1.054	1.226	1.828
0.981	0.478	-0.502	-0.729	0.741	-0.012	-0.659	0.242	0.571	0.939	1.091	1.714
0.888	0.401	-0.488	-0.644	0.688	-0.043	-0.634	0.151	0.451	0.809	0.949	1.601
0.782	0.342	-0.442	-0.562	0.611	-0.05	-0.62	0.029	0.292	0.641	0.771	1.474
0.711	0.271	-0.441	-0.491	0.575	-0.085	-0.599	-0.046	0.182	0.517	0.635	1.364
0.623	0.206	-0.417	-0.414	0.519	-0.105	-0.57	-0.113	0.079	0.4	0.496	1.248
0.505	0.143	-0.362	-0.324	0.432	-0.109	-0.518	-0.179	-0.035	0.265	0.335	1.111
0.396	0.085	-0.31	-0.24	0.352	-0.113	-0.462	-0.243	-0.139	0.142	0.193	0.986
0.261	0.056	-0.205	-0.159	0.233	-0.074	-0.418	-0.338	-0.275	-0.012	0.024	0.851
0.16	0.021	-0.139	-0.09	0.149	-0.059	-0.374	-0.413	-0.395	-0.15	-0.132	0.723
0.07	-0.015	-0.085	-0.027	0.077	-0.05	-0.334	-0.462	-0.479	-0.251	-0.252	0.622
-0.02	-0.039	-0.018	0.029	-0.001	-0.029	-0.297	-0.491	-0.534	-0.319	-0.335	0.548
-0.085	-0.062	0.022	0.073	-0.054	-0.019	-0.256	-0.501	-0.566	-0.366	-0.395	0.487
-0.157	-0.094	0.062	0.126	-0.11	-0.015	-0.218	-0.52	-0.61	-0.423	-0.469	0.417
-0.211	-0.13	0.082	0.171	-0.147	-0.024	-0.182	-0.522	-0.638	-0.466	-0.526	0.365
-0.245	-0.167	0.079	0.206	-0.163	-0.044	-0.137	-0.494	-0.628	-0.47	-0.547	0.336
-0.266	-0.197	0.07	0.231	-0.168	-0.064	-0.11	-0.465	-0.604	-0.453	-0.541	0.326
-0.273	-0.196	0.077	0.234	-0.175	-0.059	-0.098	-0.44	-0.573	-0.423	-0.517	0.336
-0.281	-0.18	0.101	0.231	-0.192	-0.039	-0.081	-0.405	-0.534	-0.388	-0.485	0.353
-0.285	-0.17	0.115	0.228	-0.2	-0.028	-0.064	-0.366	-0.495	-0.35	-0.448	0.376
-0.288	-0.172	0.117	0.23	-0.203	-0.028	-0.058	-0.344	-0.469	-0.327	-0.427	0.384
-0.29	-0.173	0.117	0.232	-0.203	-0.029	-0.052	-0.315	-0.438	-0.298	-0.403	0.398
-0.287	-0.16	0.128	0.224	-0.208	-0.016	-0.049	-0.276	-0.394	-0.261	-0.37	0.415
-0.268	-0.133	0.134	0.201	-0.202	0.001	-0.056	-0.249	-0.362	-0.232	-0.345	0.425
-0.233	-0.104	0.129	0.169	-0.181	0.013	-0.073	-0.217	-0.327	-0.198	-0.315	0.443
-0.215	-0.083	0.132	0.149	-0.174	0.025	-0.089	-0.194	-0.297	-0.172	-0.288	0.457
-0.217	-0.074	0.142	0.146	-0.18	0.035	-0.092	-0.166	-0.27	-0.146	-0.27	0.46
-0.226	-0.073	0.151	0.149	-0.189	0.04	-0.082	-0.115	-0.225	-0.11	-0.246	0.46
-0.229	-0.071	0.158	0.15	-0.194	0.043	-0.064	-0.066	-0.179	-0.075	-0.221	0.467
-0.214	-0.061	0.152	0.138	-0.184	0.046	-0.052	-0.024	-0.14	-0.037	-0.191	0.484
-0.195	-0.043	0.151	0.119	-0.173	0.054	-0.051	0.007	-0.108	-0.007	-0.163	0.502
-0.193	-0.024	0.169	0.108	-0.181	0.072	-0.05	0.022	-0.095	0.005	-0.149	0.512
-0.19	-0.011	0.178	0.101	-0.184	0.084	-0.053	0.036	-0.08	0.019	-0.138	0.519
-0.186	-0.005	0.18	0.096	-0.184	0.088	-0.051	0.057	-0.061	0.034	-0.125	0.525
-0.188	0.002	0.189	0.093	-0.189	0.096	-0.045	0.072	-0.045	0.048	-0.113	0.532
-0.193	0.004	0.197	0.095	-0.195	0.101	-0.045	0.085	-0.03	0.062	-0.099	0.54
-0.207	0.002	0.209	0.102	-0.208	0.106	-0.043	0.097	-0.018	0.075	-0.087	0.546
-0.21	0.009	0.218	0.101	-0.215	0.115	-0.043	0.11	-0.003	0.089	-0.074	0.555
-0.202	0.018	0.218	0.092	-0.21	0.118	-0.039	0.121	0.013	0.104	-0.06	0.564
-0.193	0.021	0.212	0.086	-0.203	0.117	-0.044	0.123	0.015	0.108	-0.058	0.563
-0.185	0.024	0.208	0.081	-0.197	0.117	-0.051	0.12	0.013	0.106	-0.06	0.559
-0.172	0.029	0.2	0.072	-0.187	0.115	-0.053	0.121	0.017	0.111	-0.056	0.56
-0.167	0.03	0.196	0.068	-0.182	0.114	-0.057	0.121	0.019	0.113	-0.055	0.56
-0.172	0.034	0.205	0.07	-0.189	0.12	-0.058	0.121	0.019	0.113	-0.054	0.56
-0.177	0.037	0.214	0.07	-0.197	0.126	-0.055	0.126	0.022	0.116	-0.05	0.563
-0.176	0.036	0.212	0.07	-0.195	0.125	-0.057	0.124	0.021	0.116	-0.053	0.561
-0.171	0.036	0.207	0.067	-0.19	0.122	-0.057	0.124	0.022	0.118	-0.051	0.561
-0.172	0.04	0.211	0.067	-0.193	0.126	-0.053	0.131	0.029	0.122	-0.047	0.564
-0.172	0.042	0.212	0.065	-0.193	0.128	-0.056	0.131	0.027	0.122	-0.05	0.562
-0.171	0.04	0.21	0.066	-0.192	0.126	-0.057	0.133	0.03	0.124	-0.048	0.563
-0.167	0.04	0.206	0.064	-0.187	0.123	-0.057	0.137	0.034	0.129	-0.043	0.565
-0.163	0.041	0.203	0.061	-0.183	0.122	-0.057	0.135	0.033	0.128	-0.043	0.565
-0.164	0.043	0.205	0.06	-0.185	0.124	-0.053	0.137	0.035	0.131	-0.041	0.568
-0.162	0.042	0.203	0.06	-0.183	0.123	-0.056	0.138	0.036	0.132	-0.04	0.569
-0.162	0.04	0.202	0.061	-0.182	0.121	-0.059	0.139	0.036	0.134	-0.038	0.568
-0.167	0.037	0.203	0.065	-0.185	0.12	-0.059	0.14	0.037	0.133	-0.036	0.567
-0.172	0.033	0.204	0.07	-0.189	0.119	-0.057	0.138	0.036	0.131	-0.04	0.565
-0.17	0.038	0.207	0.066	-0.189	0.123	-0.056	0.14	0.038	0.133	-0.036	0.568
-0.171	0.041	0.211	0.066	-0.192	0.126	-0.056	0.141	0.042	0.137	-0.033	0.572
-0.169	0.04	0.208	0.065	-0.189	0.124	-0.059	0.141	0.041	0.136	-0.034	0.57
-0.165	0.042	0.206	0.061	-0.186	0.125	-0.061	0.143	0.04	0.135	-0.034	0.569
-0.166	0.042	0.207	0.062	-0.188	0.125	-0.059	0.147	0.044	0.139	-0.03	0.571
-0.167	0.041	0.207	0.063	-0.188	0.125	-0.058	0.147	0.045	0.139	-0.029	0.572
-0.17	0.043	0.212	0.064	-0.191	0.128	-0.054	0.147	0.045	0.14	-0.029	0.572
-0.168	0.046	0.213	0.06	-0.191	0.13	-0.057	0.145	0.047	0.14	-0.028	0.571
-0.172	0.046	0.218	0.063	-0.196	0.133	-0.06	0.146	0.046	0.141	-0.029	0.571
-0.176	0.046	0.222	0.065	-0.2	0.135	-0.06	0.147	0.048	0.142	-0.028	0.571
-0.173	0.045	0.218	0.064	-0.196	0.132	-0.059	0.149	0.051	0.144	-0.025	0.573
-0.174	0.051	0.225	0.061	-0.2	0.139	-0.059	0.151	0.052	0.145	-0.025	0.573
-0.178	0.051	0.229	0.064	-0.204	0.141	-0.058	0.151	0.052	0.145	-0.022	0.576
-0.172	0.049	0.221	0.062	-0.197	0.135	-0.054	0.155	0.057	0.15	-0.019	0.578
-0.168	0.049	0.216	0.06	-0.193	0.133	-0.061	0.152	0.054	0.149	-0.02	0.578
-0.164	0.044	0.207	0.059	-0.186	0.126	-0.066	0.148	0.051	0.145	-0.022	0.576
-0.155	0.047	0.202	0.054	-0.179	0.125	-0.064	0.148	0.05	0.146	-0.022	0.575
-0.156	0.049	0.204	0.054	-0.18	0.127	-0.063	0.149	0.052	0.147	-0.02	0.578
-0.161	0.046	0.207	0.057	-0.184	0.127	-0.061	0.151	0.054	0.149	-0.018	0.579
-0.162	0.049	0.209	0.057	-0.186	0.13	-0.061	0.154	0.057	0.153	-0.017	0.581
-0.155	0.052	0.206	0.051	-0.181	0.13	-0.062	0.155	0.058	0.154	-0.017	0.581
-0.143	0.051	0.194	0.046	-0.169	0.123	-0.065	0.149	0.054	0.151	-0.018	0.579
-0.145	0.052	0.197	0.046	-0.172	0.125	-0.068	0.15	0.056	0.153	-0.017	0.581
-0.16	0.054	0.213	0.053	-0.188	0.134	-0.066	0.153	0.058	0.156	-0.013	0.584
-0.16	0.055	0.214	0.052	-0.188	0.135	-0.064	0.154	0.06	0.157	-0.011	0.584
-0.154	0.058	0.211	0.048	-0.183	0.135	-0.066	0.154	0.059	0.155	-0.013	0.582
-0.151	0.06	0.21	0.045	-0.181	0.136	-0.069	0.154	0.059	0.155	-0.013	0.582
-0.154	0.061	0.215	0.046	-0.185	0.139	-0.066	0.154	0.06	0.158	-0.011	0.585
-0.149	0.059	0.208	0.045	-0.179	0.134	-0.068	0.152	0.058	0.155	-0.011	0.584
-0.146	0.053	0.199	0.046	-0.173	0.127	-0.072	0.151	0.057	0.154	-0.013	0.583
-0.151	0.051	0.202	0.051	-0.177	0.127	-0.071	0.153	0.059	0.158	-0.011	0.585
-0.151	0.055	0.205	0.048	-0.179	0.131	-0.072	0.154	0.059	0.158	-0.011	0.584
-0.153	0.059	0.211	0.047	-0.183	0.136	-0.07	0.153	0.059	0.159	-0.011	0.585
-0.154	0.059	0.213	0.048	-0.184	0.137	-0.066	0.156	0.062	0.161	-0.008	0.588
-0.156	0.065	0.22	0.046	-0.188	0.142	-0.068	0.158	0.064	0.163	-0.005	0.591
-0.147	0.069	0.216	0.039	-0.182	0.143	-0.069	0.16	0.067	0.168	-0.002	0.596
-0.143	0.066	0.208	0.038	-0.176	0.138	-0.067	0.163	0.07	0.171	0.003	0.599
-0.143	0.06	0.203	0.042	-0.174	0.133	-0.069	0.159	0.067	0.168	-0.001	0.597
-0.14	0.056	0.196	0.042	-0.169	0.127	-0.075	0.151	0.06	0.163	-0.007	0.591
-0.146	0.051	0.197	0.048	-0.172	0.125	-0.077	0.149	0.058	0.159	-0.012	0.586
-0.15	0.05	0.199	0.051	-0.175	0.125	-0.078	0.151	0.057	0.158	-0.012	0.584
-0.142	0.053	0.196	0.045	-0.17	0.124	-0.079	0.15	0.059	0.158	-0.012	0.585
-0.141	0.059	0.2	0.042	-0.171	0.13	-0.076	0.152	0.061	0.16	-0.009	0.587
-0.14	0.061	0.201	0.04	-0.171	0.132	-0.079	0.151	0.061	0.161	-0.007	0.589
-0.146	0.057	0.203	0.044	-0.175	0.131	-0.078	0.155	0.065	0.163	-0.005	0.592
-0.157	0.055	0.211	0.051	-0.184	0.134	-0.075	0.157	0.066	0.167	-0.003	0.592
-0.144	0.06	0.204	0.042	-0.175	0.133	-0.078	0.155	0.066	0.165	-0.004	0.591
-0.14	0.065	0.204	0.037	-0.172	0.136	-0.079	0.159	0.069	0.169	-0.001	0.595
-0.147	0.064	0.21	0.042	-0.179	0.138	-0.076	0.158	0.068	0.169	0.001	0.595
-0.154	0.057	0.21	0.049	-0.182	0.135	-0.076	0.155	0.064	0.165	-0.002	0.592
-0.146	0.064	0.209	0.041	-0.178	0.137	-0.082	0.154	0.066	0.168	0.001	0.594
-0.135	0.071	0.205	0.032	-0.171	0.139	-0.082	0.157	0.069	0.17	0.003	0.598
-0.135	0.072	0.206	0.031	-0.171	0.14	-0.084	0.157	0.069	0.17	0.003	0.598
-0.127	0.073	0.2	0.026	-0.164	0.137	-0.081	0.158	0.069	0.171	0.004	0.598
-0.127	0.076	0.202	0.025	-0.165	0.14	-0.077	0.159	0.069	0.173	0.006	0.602
-0.131	0.077	0.207	0.026	-0.169	0.142	-0.082	0.162	0.071	0.175	0.009	0.604
-0.128	0.072	0.2	0.028	-0.165	0.137	-0.085	0.159	0.07	0.175	0.009	0.603
-0.124	0.074	0.198	0.025	-0.162	0.137	-0.084	0.161	0.072	0.178	0.011	0.606
-0.126	0.074	0.199	0.025	-0.163	0.137	-0.083	0.162	0.074	0.179	0.011	0.606
-0.129	0.07	0.199	0.029	-0.165	0.136	-0.086	0.157	0.07	0.175	0.009	0.604
-0.128	0.071	0.198	0.028	-0.163	0.135	-0.089	0.159	0.07	0.175	0.01	0.604
-0.117	0.08	0.197	0.019	-0.158	0.139	-0.086	0.161	0.074	0.179	0.013	0.608
-0.132	0.07	0.201	0.03	-0.167	0.136	-0.093	0.155	0.07	0.175	0.009	0.604
-0.153	0.051	0.204	0.051	-0.179	0.129	-0.103	0.147	0.063	0.167	0.002	0.597
-0.149	0.052	0.201	0.048	-0.175	0.127	-0.1	0.148	0.065	0.17	0.005	0.6
-0.137	0.066	0.203	0.035	-0.17	0.135	-0.092	0.155	0.071	0.175	0.013	0.604
-0.125	0.082	0.207	0.021	-0.167	0.145	-0.09	0.16	0.076	0.18	0.017	0.609
-0.128	0.081	0.208	0.024	-0.168	0.144	-0.095	0.158	0.076	0.181	0.018	0.611
-0.137	0.076	0.212	0.03	-0.175	0.144	-0.093	0.158	0.074	0.178	0.017	0.609
-0.141	0.074	0.215	0.034	-0.179	0.145	-0.09	0.161	0.075	0.179	0.019	0.61
-0.136	0.079	0.214	0.028	-0.175	0.147	-0.093	0.16	0.079	0.183	0.022	0.614
-0.13	0.083	0.212	0.023	-0.171	0.148	-0.095	0.159	0.076	0.182	0.021	0.612
-0.131	0.08	0.21	0.025	-0.171	0.146	-0.099	0.158	0.075	0.179	0.018	0.609
-0.122	0.079	0.201	0.021	-0.162	0.14	-0.099	0.157	0.074	0.18	0.02	0.61
-0.118	0.08	0.198	0.019	-0.159	0.14	-0.099	0.157	0.075	0.182	0.021	0.612
-0.119	0.08	0.199	0.02	-0.16	0.14	-0.099	0.157	0.077	0.183	0.024	0.615
-0.114	0.084	0.197	0.015	-0.156	0.141	-0.098	0.159	0.08	0.187	0.029	0.619
-0.114	0.084	0.196	0.015	-0.155	0.14	-0.1	0.157	0.079	0.186	0.028	0.619
-0.103	0.082	0.184	0.011	-0.144	0.134	-0.102	0.154	0.077	0.184	0.027	0.617
-0.102	0.081	0.182	0.011	-0.143	0.132	-0.106	0.155	0.075	0.183	0.027	0.617
-0.111	0.078	0.188	0.016	-0.149	0.134	-0.105	0.155	0.076	0.187	0.029	0.62
-0.101	0.086	0.185	0.007	-0.143	0.136	-0.105	0.159	0.081	0.192	0.034	0.624
-0.102	0.085	0.188	0.009	-0.145	0.137	-0.107	0.157	0.079	0.191	0.033	0.624
-0.104	0.086	0.19	0.009	-0.147	0.138	-0.107	0.155	0.078	0.19	0.034	0.625
-0.106	0.083	0.188	0.011	-0.147	0.136	-0.108	0.158	0.081	0.194	0.038	0.626
-0.115	0.083	0.196	0.016	-0.155	0.14	-0.108	0.158	0.083	0.195	0.037	0.627
-0.112	0.09	0.202	0.011	-0.157	0.146	-0.11	0.159	0.083	0.196	0.04	0.628
-0.11	0.088	0.197	0.011	-0.153	0.143	-0.109	0.159	0.083	0.199	0.043	0.631
-0.106	0.089	0.195	0.009	-0.15	0.142	-0.114	0.158	0.084	0.197	0.044	0.632
-0.098	0.092	0.19	0.003	-0.144	0.141	-0.115	0.16	0.086	0.199	0.047	0.633
-0.09	0.098	0.186	-0.004	-0.139	0.142	-0.114	0.159	0.086	0.2	0.048	0.634
-0.087	0.1	0.186	-0.006	-0.138	0.143	-0.115	0.159	0.087	0.201	0.05	0.634
-0.083	0.099	0.181	-0.008	-0.133	0.141	-0.115	0.16	0.087	0.202	0.049	0.635
-0.079	0.102	0.18	-0.011	-0.13	0.141	-0.118	0.157	0.087	0.202	0.048	0.635
-0.079	0.102	0.18	-0.012	-0.13	0.142	-0.124	0.154	0.086	0.203	0.05	0.636
-0.075	0.095	0.17	-0.009	-0.123	0.133	-0.13	0.151	0.084	0.201	0.05	0.636
-0.082	0.09	0.171	-0.004	-0.127	0.131	-0.13	0.151	0.084	0.203	0.052	0.638
-0.087	0.091	0.178	-0.003	-0.133	0.136	-0.128	0.155	0.087	0.206	0.055	0.641
-0.085	0.093	0.177	-0.004	-0.131	0.136	-0.126	0.155	0.091	0.208	0.058	0.645
-0.077	0.1	0.176	-0.011	-0.128	0.139	-0.129	0.157	0.092	0.211	0.061	0.649
-0.07	0.102	0.172	-0.017	-0.121	0.138	-0.135	0.156	0.093	0.213	0.062	0.649
-0.07	0.103	0.173	-0.016	-0.123	0.139	-0.134	0.157	0.092	0.213	0.065	0.654
-0.071	0.105	0.175	-0.017	-0.123	0.141	-0.138	0.154	0.092	0.215	0.067	0.655
-0.068	0.109	0.176	-0.021	-0.122	0.143	-0.142	0.154	0.095	0.216	0.067	0.655
-0.071	0.107	0.178	-0.018	-0.126	0.143	-0.134	0.162	0.1	0.223	0.074	0.664
-0.071	0.11	0.181	-0.019	-0.127	0.146	-0.134	0.163	0.102	0.227	0.078	0.668
-0.067	0.116	0.182	-0.025	-0.125	0.149	-0.139	0.162	0.102	0.226	0.079	0.667
-0.065	0.114	0.178	-0.025	-0.122	0.146	-0.141	0.158	0.1	0.223	0.077	0.665
-0.059	0.11	0.168	-0.025	-0.114	0.14	-0.146	0.153	0.097	0.223	0.076	0.665
-0.053	0.111	0.164	-0.029	-0.109	0.138	-0.15	0.154	0.098	0.225	0.08	0.668
-0.049	0.112	0.16	-0.032	-0.104	0.137	-0.153	0.154	0.099	0.225	0.082	0.669
-0.041	0.11	0.15	-0.035	-0.097	0.131	-0.154	0.153	0.1	0.226	0.084	0.671
-0.037	0.116	0.151	-0.039	-0.095	0.134	-0.156	0.155	0.103	0.231	0.088	0.675
-0.044	0.116	0.16	-0.035	-0.102	0.138	-0.159	0.155	0.103	0.232	0.09	0.678
-0.051	0.116	0.167	-0.033	-0.11	0.142	-0.158	0.152	0.102	0.231	0.092	0.679
-0.043	0.119	0.162	-0.038	-0.103	0.141	-0.161	0.154	0.104	0.236	0.097	0.684
-0.033	0.119	0.152	-0.043	-0.093	0.136	-0.166	0.157	0.109	0.241	0.104	0.69
-0.032	0.119	0.15	-0.044	-0.091	0.135	-0.165	0.158	0.111	0.244	0.108	0.695
-0.034	0.12	0.153	-0.043	-0.093	0.137	-0.164	0.16	0.112	0.246	0.109	0.696
-0.029	0.121	0.149	-0.046	-0.089	0.136	-0.17	0.158	0.115	0.248	0.113	0.699
-0.021	0.123	0.143	-0.051	-0.083	0.134	-0.175	0.154	0.114	0.248	0.115	0.703
-0.015	0.129	0.144	-0.057	-0.08	0.137	-0.177	0.152	0.113	0.248	0.117	0.705
-0.013	0.133	0.145	-0.06	-0.08	0.14	-0.179	0.152	0.113	0.251	0.12	0.707
-0.011	0.134	0.145	-0.061	-0.079	0.14	-0.182	0.154	0.115	0.253	0.122	0.709
-0.007	0.134	0.141	-0.064	-0.074	0.138	-0.187	0.155	0.117	0.256	0.126	0.711
-0.005	0.136	0.141	-0.066	-0.073	0.139	-0.187	0.154	0.118	0.257	0.129	0.715
-0.004	0.139	0.142	-0.068	-0.073	0.141	-0.186	0.152	0.118	0.257	0.132	0.718
0.004	0.15	0.146	-0.077	-0.071	0.148	-0.187	0.156	0.123	0.263	0.138	0.724
-0.01	0.14	0.149	-0.065	-0.08	0.145	-0.197	0.152	0.121	0.261	0.136	0.723
-0.02	0.12	0.14	-0.051	-0.081	0.131	-0.208	0.144	0.115	0.255	0.13	0.719
-0.003	0.145	0.147	-0.071	-0.075	0.146	-0.198	0.155	0.127	0.268	0.143	0.733
0.009	0.157	0.146	-0.083	-0.069	0.152	-0.199	0.153	0.128	0.27	0.146	0.736
0.017	0.152	0.134	-0.085	-0.059	0.143	-0.209	0.148	0.123	0.269	0.145	0.736
0.013	0.154	0.141	-0.084	-0.065	0.148	-0.21	0.15	0.128	0.272	0.151	0.742
0.016	0.16	0.143	-0.088	-0.064	0.152	-0.213	0.148	0.128	0.272	0.151	0.743
0.025	0.162	0.137	-0.093	-0.057	0.149	-0.218	0.147	0.127	0.275	0.155	0.747
0.022	0.158	0.135	-0.09	-0.057	0.146	-0.217	0.144	0.126	0.276	0.161	0.751
0.029	0.163	0.135	-0.096	-0.053	0.149	-0.221	0.147	0.132	0.283	0.167	0.756
0.029	0.162	0.133	-0.096	-0.052	0.148	-0.227	0.147	0.134	0.285	0.17	0.759
0.032	0.168	0.136	-0.1	-0.053	0.152	-0.227	0.149	0.135	0.286	0.172	0.761
0.042	0.175	0.133	-0.109	-0.045	0.154	-0.23	0.151	0.138	0.289	0.175	0.764
0.046	0.175	0.129	-0.111	-0.042	0.152	-0.229	0.15	0.137	0.291	0.179	0.769
0.052	0.178	0.125	-0.115	-0.037	0.152	-0.235	0.142	0.133	0.288	0.177	0.77
0.053	0.179	0.125	-0.117	-0.036	0.152	-0.238	0.139	0.134	0.287	0.177	0.77
0.062	0.185	0.122	-0.123	-0.031	0.154	-0.239	0.144	0.138	0.291	0.184	0.775
0.064	0.189	0.124	-0.126	-0.031	0.157	-0.243	0.144	0.139	0.296	0.187	0.78
0.052	0.189	0.136	-0.12	-0.043	0.163	-0.243	0.144	0.14	0.298	0.191	0.782
0.056	0.186	0.131	-0.121	-0.038	0.159	-0.248	0.142	0.138	0.295	0.19	0.781
0.06	0.19	0.129	-0.124	-0.035	0.16	-0.251	0.145	0.141	0.299	0.193	0.784
0.062	0.191	0.129	-0.127	-0.034	0.161	-0.254	0.143	0.141	0.3	0.195	0.788
0.067	0.194	0.127	-0.13	-0.031	0.161	-0.254	0.141	0.141	0.3	0.196	0.788
0.066	0.197	0.131	-0.132	-0.033	0.165	-0.254	0.144	0.142	0.302	0.199	0.789
0.066	0.192	0.126	-0.129	-0.03	0.16	-0.256	0.143	0.143	0.303	0.202	0.795
0.073	0.197	0.124	-0.135	-0.026	0.161	-0.259	0.141	0.144	0.307	0.204	0.797
0.074	0.205	0.131	-0.14	-0.029	0.168	-0.261	0.139	0.142	0.303	0.203	0.797
0.081	0.208	0.127	-0.144	-0.024	0.168	-0.258	0.141	0.145	0.307	0.207	0.803
0.086	0.209	0.122	-0.147	-0.018	0.167	-0.259	0.143	0.146	0.31	0.21	0.805
0.089	0.21	0.121	-0.15	-0.016	0.166	-0.26	0.14	0.144	0.309	0.21	0.806
0.098	0.216	0.118	-0.157	-0.011	0.167	-0.262	0.143	0.149	0.314	0.214	0.81
0.1	0.213	0.114	-0.157	-0.007	0.164	-0.266	0.142	0.148	0.312	0.213	0.811
0.093	0.21	0.117	-0.151	-0.013	0.164	-0.269	0.138	0.143	0.309	0.21	0.809
0.081	0.206	0.125	-0.144	-0.022	0.167	-0.268	0.14	0.145	0.311	0.214	0.81
0.073	0.2	0.127	-0.137	-0.028	0.164	-0.27	0.137	0.143	0.309	0.214	0.811
0.065	0.198	0.132	-0.131	-0.035	0.166	-0.273	0.132	0.14	0.306	0.211	0.808
0.07	0.199	0.129	-0.135	-0.03	0.165	-0.272	0.134	0.141	0.307	0.213	0.81
0.083	0.207	0.124	-0.144	-0.021	0.166	-0.273	0.136	0.144	0.31	0.215	0.813
0.087	0.208	0.121	-0.147	-0.017	0.165	-0.276	0.135	0.144	0.31	0.216	0.814
0.079	0.196	0.117	-0.138	-0.019	0.157	-0.284	0.127	0.138	0.304	0.209	0.806
0.073	0.199	0.126	-0.136	-0.026	0.163	-0.282	0.124	0.136	0.301	0.205	0.804
0.081	0.213	0.133	-0.147	-0.026	0.173	-0.276	0.134	0.144	0.309	0.214	0.812
0.074	0.218	0.143	-0.146	-0.035	0.181	-0.274	0.142	0.15	0.317	0.222	0.819
0.069	0.218	0.149	-0.143	-0.041	0.184	-0.271	0.141	0.151	0.317	0.223	0.821
0.078	0.215	0.136	-0.146	-0.029	0.176	-0.273	0.138	0.148	0.314	0.219	0.818
0.09	0.211	0.121	-0.151	-0.015	0.167	-0.28	0.134	0.143	0.31	0.215	0.815
0.102	0.218	0.116	-0.16	-0.007	0.167	-0.286	0.125	0.136	0.303	0.209	0.808
0.097	0.216	0.119	-0.157	-0.011	0.168	-0.282	0.128	0.137	0.304	0.21	0.81
0.096	0.219	0.122	-0.158	-0.014	0.171	-0.278	0.133	0.143	0.31	0.215	0.817
0.092	0.223	0.13	-0.158	-0.019	0.176	-0.277	0.134	0.144	0.312	0.218	0.818
0.096	0.222	0.126	-0.159	-0.016	0.174	-0.277	0.132	0.141	0.309	0.219	0.818
0.111	0.222	0.111	-0.167	-0.001	0.167	-0.284	0.128	0.138	0.306	0.214	0.816
0.123	0.218	0.096	-0.171	0.013	0.157	-0.29	0.122	0.132	0.301	0.211	0.812
0.13	0.229	0.1	-0.179	0.015	0.165	-0.282	0.127	0.137	0.307	0.216	0.818
0.12	0.236	0.116	-0.178	0.002	0.176	-0.279	0.135	0.143	0.314	0.221	0.825
0.121	0.235	0.114	-0.178	0.004	0.174	-0.283	0.13	0.136	0.305	0.213	0.816
0.111	0.23	0.118	-0.17	-0.004	0.174	-0.277	0.132	0.139	0.307	0.213	0.816
0.102	0.227	0.125	-0.164	-0.013	0.176	-0.273	0.134	0.141	0.308	0.215	0.817
0.092	0.22	0.127	-0.156	-0.018	0.174	-0.276	0.129	0.135	0.302	0.211	0.814
0.07	0.202	0.132	-0.136	-0.031	0.168	-0.281	0.124	0.131	0.299	0.207	0.81
0.071	0.203	0.131	-0.137	-0.03	0.168	-0.278	0.126	0.132	0.298	0.205	0.808
0.075	0.207	0.132	-0.141	-0.029	0.17	-0.272	0.131	0.135	0.298	0.204	0.807
0.072	0.204	0.132	-0.138	-0.03	0.169	-0.27	0.129	0.134	0.297	0.204	0.807
0.065	0.205	0.14	-0.135	-0.038	0.173	-0.266	0.132	0.134	0.3	0.204	0.806
0.064	0.204	0.141	-0.135	-0.039	0.173	-0.264	0.133	0.133	0.297	0.201	0.804
0.068	0.203	0.135	-0.136	-0.034	0.17	-0.258	0.137	0.135	0.3	0.2	0.803
0.058	0.208	0.15	-0.134	-0.046	0.179	-0.256	0.139	0.133	0.296	0.198	0.8
0.058	0.205	0.147	-0.132	-0.045	0.176	-0.261	0.135	0.128	0.29	0.194	0.797
0.064	0.201	0.136	-0.133	-0.036	0.169	-0.258	0.134	0.128	0.291	0.191	0.794
0.073	0.203	0.129	-0.138	-0.029	0.166	-0.255	0.137	0.128	0.289	0.189	0.79
0.075	0.202	0.127	-0.139	-0.026	0.165	-0.254	0.139	0.127	0.288	0.186	0.786
0.066	0.198	0.131	-0.132	-0.033	0.165	-0.251	0.139	0.126	0.285	0.181	0.783
0.065	0.197	0.131	-0.131	-0.034	0.165	-0.248	0.14	0.124	0.283	0.176	0.778
0.05	0.194	0.143	-0.121	-0.048	0.17	-0.241	0.141	0.124	0.282	0.174	0.776
0.041	0.191	0.149	-0.116	-0.054	0.17	-0.235	0.142	0.124	0.279	0.172	0.772
0.048	0.197	0.148	-0.122	-0.051	0.173	-0.234	0.143	0.124	0.278	0.168	0.767
0.051	0.199	0.147	-0.125	-0.049	0.173	-0.229	0.148	0.128	0.28	0.17	0.769
0.043	0.195	0.151	-0.119	-0.054	0.173	-0.223	0.149	0.127	0.277	0.165	0.761
0.034	0.194	0.159	-0.114	-0.062	0.176	-0.216	0.149	0.126	0.274	0.16	0.757
0.041	0.202	0.161	-0.121	-0.06	0.182	-0.208	0.154	0.131	0.278	0.163	0.76
0.032	0.199	0.167	-0.116	-0.068	0.183	-0.205	0.155	0.128	0.273	0.157	0.754
-0.003	0.17	0.172	-0.083	-0.088	0.171	-0.21	0.149	0.118	0.263	0.143	0.742
-0.002	0.172	0.172	-0.085	-0.087	0.173	-0.204	0.153	0.12	0.263	0.141	0.74
0.023	0.194	0.171	-0.108	-0.074	0.183	-0.194	0.157	0.122	0.264	0.141	0.74
0.015	0.185	0.17	-0.1	-0.079	0.178	-0.195	0.156	0.119	0.261	0.136	0.734
-0.007	0.169	0.175	-0.081	-0.091	0.172	-0.194	0.157	0.118	0.257	0.132	0.729
-0.014	0.171	0.184	-0.078	-0.1	0.177	-0.186	0.156	0.115	0.253	0.126	0.723
-0.004	0.184	0.188	-0.09	-0.097	0.186	-0.183	0.16	0.116	0.252	0.124	0.722
0.005	0.188	0.181	-0.096	-0.089	0.185	-0.178	0.164	0.117	0.253	0.126	0.721
-0.001	0.18	0.18	-0.09	-0.09	0.18	-0.17	0.166	0.117	0.251	0.12	0.718
-0.009	0.171	0.18	-0.081	-0.096	0.176	-0.169	0.162	0.113	0.246	0.116	0.712
-0.015	0.165	0.179	-0.074	-0.098	0.172	-0.171	0.162	0.111	0.242	0.112	0.706
-0.028	0.158	0.185	-0.065	-0.107	0.172	-0.163	0.164	0.11	0.24	0.107	0.702
-0.034	0.156	0.19	-0.061	-0.112	0.173	-0.157	0.167	0.11	0.239	0.107	0.701
-0.043	0.152	0.195	-0.054	-0.12	0.174	-0.155	0.168	0.108	0.235	0.102	0.696
-0.051	0.152	0.203	-0.051	-0.128	0.178	-0.152	0.166	0.105	0.232	0.096	0.69
-0.042	0.155	0.197	-0.057	-0.12	0.176	-0.147	0.172	0.108	0.234	0.096	0.689
-0.044	0.155	0.198	-0.056	-0.121	0.177	-0.141	0.173	0.11	0.233	0.093	0.684
-0.052	0.151	0.203	-0.05	-0.128	0.177	-0.139	0.17	0.103	0.225	0.086	0.679
-0.063	0.14	0.203	-0.038	-0.134	0.172	-0.137	0.163	0.096	0.218	0.079	0.671
-0.068	0.137	0.204	-0.034	-0.137	0.171	-0.134	0.163	0.093	0.214	0.073	0.664
-0.071	0.131	0.202	-0.03	-0.138	0.167	-0.131	0.17	0.094	0.213	0.071	0.661
-0.082	0.127	0.208	-0.022	-0.145	0.168	-0.125	0.169	0.096	0.213	0.07	0.661
-0.081	0.133	0.213	-0.026	-0.147	0.173	-0.12	0.172	0.096	0.213	0.068	0.66
-0.076	0.137	0.212	-0.03	-0.144	0.175	-0.117	0.174	0.097	0.214	0.067	0.657
-0.065	0.137	0.2	-0.036	-0.133	0.169	-0.116	0.176	0.098	0.212	0.065	0.655
-0.073	0.132	0.205	-0.029	-0.14	0.169	-0.114	0.172	0.092	0.206	0.058	0.649
-0.097	0.116	0.212	-0.009	-0.154	0.165	-0.117	0.169	0.087	0.202	0.052	0.643
-0.097	0.107	0.204	-0.005	-0.151	0.157	-0.115	0.17	0.086	0.201	0.051	0.642
-0.106	0.115	0.221	-0.004	-0.164	0.169	-0.104	0.176	0.092	0.206	0.055	0.644
-0.103	0.118	0.221	-0.007	-0.163	0.17	-0.101	0.178	0.091	0.206	0.053	0.642
-0.086	0.115	0.201	-0.015	-0.143	0.158	-0.106	0.17	0.083	0.196	0.043	0.632
-0.088	0.106	0.194	-0.009	-0.141	0.151	-0.108	0.166	0.077	0.191	0.036	0.625
-0.092	0.102	0.194	-0.004	-0.143	0.148	-0.105	0.164	0.076	0.189	0.035	0.624
-0.096	0.104	0.2	-0.004	-0.148	0.153	-0.104	0.167	0.079	0.19	0.035	0.625
-0.098	0.111	0.208	-0.006	-0.154	0.16	-0.099	0.171	0.077	0.19	0.034	0.624
-0.095	0.11	0.204	-0.008	-0.149	0.158	-0.093	0.173	0.082	0.193	0.035	0.624
-0.093	0.106	0.199	-0.006	-0.146	0.153	-0.092	0.172	0.081	0.189	0.03	0.62
-0.102	0.104	0.205	-0.001	-0.154	0.155	-0.094	0.169	0.076	0.184	0.025	0.616
-0.12	0.093	0.213	0.013	-0.168	0.154	-0.095	0.166	0.072	0.181	0.022	0.612
-0.134	0.088	0.221	0.022	-0.177	0.154	-0.092	0.169	0.072	0.18	0.019	0.609
-0.128	0.096	0.224	0.016	-0.176	0.16	-0.086	0.172	0.076	0.182	0.021	0.61
-0.127	0.101	0.227	0.013	-0.177	0.165	-0.085	0.173	0.077	0.182	0.021	0.611
-0.122	0.102	0.224	0.009	-0.173	0.164	-0.088	0.173	0.076	0.181	0.02	0.61
-0.108	0.104	0.213	0.002	-0.161	0.159	-0.088	0.17	0.074	0.179	0.019	0.606
-0.101	0.103	0.203	-0.001	-0.152	0.154	-0.084	0.171	0.074	0.18	0.018	0.606
-0.092	0.114	0.205	-0.011	-0.149	0.16	-0.085	0.17	0.075	0.179	0.018	0.609
-0.093	0.122	0.215	-0.014	-0.154	0.169	-0.084	0.172	0.076	0.18	0.019	0.612
-0.097	0.114	0.209	-0.009	-0.153	0.162	-0.081	0.173	0.077	0.182	0.021	0.613
-0.097	0.113	0.209	-0.008	-0.153	0.162	-0.079	0.175	0.078	0.183	0.021	0.612
-0.107	0.105	0.211	0.001	-0.16	0.159	-0.074	0.177	0.077	0.181	0.019	0.609
-0.124	0.086	0.209	0.019	-0.168	0.147	-0.084	0.168	0.07	0.175	0.013	0.604
-0.134	0.079	0.211	0.028	-0.172	0.145	-0.087	0.168	0.069	0.173	0.011	0.601
-0.128	0.083	0.209	0.022	-0.169	0.146	-0.085	0.168	0.067	0.172	0.011	0.602
-0.129	0.087	0.215	0.021	-0.172	0.152	-0.082	0.168	0.069	0.173	0.013	0.604
-0.129	0.098	0.226	0.015	-0.178	0.163	-0.073	0.176	0.076	0.179	0.019	0.607
-0.127	0.1	0.226	0.013	-0.176	0.163	-0.072	0.175	0.076	0.181	0.021	0.612
-0.13	0.098	0.227	0.016	-0.178	0.163	-0.069	0.177	0.078	0.182	0.022	0.61
-0.131	0.095	0.226	0.018	-0.178	0.161	-0.075	0.175	0.074	0.179	0.018	0.606
-0.141	0.072	0.213	0.035	-0.178	0.143	-0.09	0.161	0.06	0.165	0.004	0.594
-0.132	0.076	0.208	0.028	-0.171	0.143	-0.087	0.161	0.061	0.164	0.002	0.591
-0.107	0.098	0.205	0.004	-0.157	0.152	-0.08	0.167	0.066	0.17	0.006	0.596
-0.114	0.098	0.211	0.008	-0.163	0.155	-0.083	0.166	0.066	0.168	0.008	0.598
-0.122	0.091	0.214	0.015	-0.169	0.153	-0.084	0.166	0.067	0.17	0.008	0.598
-0.117	0.088	0.204	0.015	-0.161	0.146	-0.084	0.167	0.067	0.17	0.008	0.596
-0.116	0.089	0.204	0.013	-0.161	0.147	-0.078	0.168	0.068	0.171	0.009	0.597
-0.114	0.089	0.203	0.012	-0.159	0.146	-0.077	0.167	0.066	0.171	0.008	0.598
-0.121	0.088	0.209	0.017	-0.166	0.149	-0.082	0.166	0.063	0.166	0.004	0.596
-0.129	0.086	0.215	0.021	-0.172	0.151	-0.078	0.166	0.064	0.168	0.007	0.598
-0.123	0.088	0.211	0.018	-0.168	0.15	-0.077	0.165	0.064	0.168	0.008	0.6
-0.118	0.091	0.21	0.013	-0.165	0.151	-0.079	0.169	0.066	0.171	0.007	0.599
-0.114	0.093	0.206	0.01	-0.161	0.15	-0.077	0.172	0.069	0.173	0.01	0.599
-0.114	0.093	0.206	0.011	-0.161	0.15	-0.078	0.172	0.07	0.171	0.011	0.599
-0.116	0.093	0.209	0.011	-0.163	0.151	-0.073	0.171	0.07	0.173	0.012	0.6
-0.11	0.1	0.209	0.005	-0.16	0.154	-0.073	0.171	0.069	0.172	0.009	0.6
-0.108	0.107	0.215	0.001	-0.162	0.162	-0.076	0.172	0.069	0.172	0.009	0.598
-0.119	0.099	0.218	0.01	-0.169	0.159	-0.074	0.169	0.067	0.17	0.007	0.597
-0.124	0.092	0.215	0.016	-0.17	0.154	-0.074	0.168	0.065	0.168	0.005	0.594
-0.146	0.082	0.228	0.033	-0.188	0.155	-0.075	0.169	0.068	0.169	0.006	0.595
-0.153	0.072	0.226	0.041	-0.19	0.149	-0.081	0.165	0.062	0.166	0.002	0.591
-0.135	0.089	0.223	0.023	-0.179	0.156	-0.08	0.167	0.065	0.168	0.004	0.594
-0.127	0.095	0.221	0.015	-0.174	0.159	-0.079	0.165	0.064	0.165	0.002	0.592
-0.125	0.091	0.216	0.017	-0.171	0.154	-0.081	0.165	0.062	0.165	0.002	0.592
-0.117	0.096	0.212	0.01	-0.165	0.154	-0.081	0.164	0.063	0.165	0.002	0.592
-0.091	0.102	0.194	-0.006	-0.142	0.148	-0.084	0.161	0.058	0.161	-0.004	0.587
-0.106	0.092	0.199	0.007	-0.153	0.146	-0.084	0.162	0.058	0.161	-0.003	0.587
-0.123	0.085	0.207	0.019	-0.166	0.146	-0.085	0.16	0.057	0.16	-0.003	0.588
-0.121	0.091	0.211	0.015	-0.167	0.151	-0.087	0.159	0.057	0.159	-0.003	0.588
-0.134	0.088	0.221	0.023	-0.178	0.155	-0.086	0.16	0.057	0.158	-0.004	0.586
-0.135	0.088	0.222	0.024	-0.178	0.155	-0.08	0.162	0.06	0.163	0.001	0.591
-0.124	0.09	0.214	0.018	-0.17	0.152	-0.079	0.167	0.064	0.169	0.007	0.596
-0.124	0.092	0.216	0.016	-0.171	0.154	-0.08	0.168	0.065	0.169	0.006	0.595
-0.128	0.09	0.217	0.019	-0.173	0.154	-0.084	0.165	0.062	0.167	0.004	0.592
-0.129	0.086	0.213	0.021	-0.172	0.15	-0.082	0.164	0.061	0.165	0.003	0.589
-0.132	0.085	0.216	0.024	-0.174	0.15	-0.08	0.162	0.059	0.162	0	0.586
-0.132	0.089	0.221	0.021	-0.176	0.155	-0.082	0.162	0.059	0.161	-0.001	0.586
-0.135	0.088	0.223	0.023	-0.179	0.156	-0.081	0.165	0.063	0.163	0	0.586
-0.142	0.075	0.216	0.034	-0.179	0.146	-0.085	0.163	0.06	0.16	-0.003	0.583
-0.129	0.079	0.207	0.025	-0.169	0.143	-0.086	0.158	0.055	0.157	-0.006	0.582
-0.116	0.089	0.205	0.013	-0.161	0.147	-0.085	0.157	0.057	0.158	-0.005	0.583
-0.118	0.095	0.213	0.012	-0.167	0.154	-0.081	0.165	0.062	0.161	-0.003	0.585
-0.123	0.095	0.217	0.014	-0.171	0.157	-0.079	0.165	0.063	0.162	-0.003	0.585
-0.129	0.091	0.22	0.018	-0.174	0.157	-0.08	0.163	0.062	0.161	-0.003	0.585
-0.125	0.09	0.214	0.018	-0.17	0.152	-0.082	0.159	0.057	0.158	-0.005	0.582
-0.121	0.089	0.209	0.016	-0.166	0.149	-0.082	0.164	0.061	0.16	-0.004	0.583
-0.117	0.093	0.211	0.012	-0.165	0.153	-0.084	0.168	0.063	0.161	-0.004	0.585
-0.121	0.094	0.214	0.013	-0.168	0.154	-0.083	0.162	0.058	0.158	-0.005	0.581
-0.128	0.09	0.217	0.018	-0.173	0.154	-0.083	0.161	0.058	0.156	-0.008	0.58
-0.124	0.097	0.221	0.013	-0.173	0.16	-0.084	0.16	0.057	0.155	-0.007	0.579
-0.116	0.103	0.218	0.006	-0.168	0.162	-0.079	0.165	0.062	0.161	-0.002	0.583
-0.117	0.096	0.212	0.011	-0.165	0.154	-0.08	0.167	0.062	0.161	-0.001	0.585
-0.12	0.094	0.214	0.013	-0.168	0.154	-0.082	0.168	0.063	0.162	0	0.584
-0.117	0.099	0.215	0.009	-0.167	0.158	-0.082	0.167	0.064	0.164	0.002	0.585
-0.118	0.098	0.216	0.011	-0.168	0.157	-0.081	0.168	0.061	0.162	-0.001	0.584
-0.118	0.097	0.215	0.011	-0.167	0.157	-0.08	0.167	0.061	0.162	-0.002	0.584
-0.122	0.099	0.221	0.011	-0.172	0.16	-0.08	0.164	0.059	0.159	-0.002	0.585
-0.117	0.099	0.215	0.009	-0.167	0.158	-0.082	0.169	0.064	0.161	0.002	0.586
-0.114	0.097	0.21	0.009	-0.163	0.154	-0.081	0.168	0.065	0.164	0.003	0.586
-0.12	0.098	0.218	0.011	-0.17	0.159	-0.081	0.167	0.061	0.161	0	0.585
-0.12	0.099	0.218	0.011	-0.17	0.159	-0.086	0.168	0.062	0.16	-0.002	0.585
-0.12	0.099	0.218	0.011	-0.17	0.159	-0.084	0.166	0.061	0.16	-0.004	0.584
-0.121	0.102	0.223	0.01	-0.172	0.163	-0.081	0.169	0.064	0.162	-0.002	0.586
-0.123	0.102	0.226	0.011	-0.175	0.165	-0.076	0.173	0.069	0.166	0.004	0.589
-0.119	0.106	0.225	0.006	-0.173	0.166	-0.077	0.173	0.068	0.166	0.004	0.589
-0.108	0.115	0.223	-0.003	-0.167	0.17	-0.076	0.178	0.074	0.172	0.007	0.594
-0.105	0.117	0.221	-0.006	-0.164	0.169	-0.073	0.181	0.077	0.176	0.011	0.595
-0.117	0.116	0.233	0.001	-0.175	0.174	-0.075	0.179	0.072	0.172	0.008	0.592
-0.119	0.11	0.229	0.005	-0.174	0.17	-0.075	0.174	0.07	0.167	0.003	0.59
-0.122	0.103	0.226	0.009	-0.175	0.166	-0.081	0.166	0.063	0.161	-0.002	0.586
-0.128	0.097	0.225	0.015	-0.177	0.162	-0.086	0.165	0.062	0.162	-0.002	0.587
-0.125	0.088	0.213	0.018	-0.17	0.151	-0.086	0.166	0.062	0.16	-0.003	0.584
-0.128	0.09	0.217	0.019	-0.173	0.154	-0.081	0.169	0.065	0.163	0	0.587
-0.127	0.091	0.217	0.018	-0.172	0.154	-0.081	0.17	0.066	0.165	0.004	0.591
-0.122	0.094	0.215	0.014	-0.17	0.155	-0.08	0.17	0.066	0.164	0.003	0.589
-0.119	0.102	0.221	0.009	-0.171	0.162	-0.077	0.169	0.067	0.165	0.003	0.59
-0.128	0.103	0.23	0.012	-0.179	0.167	-0.084	0.167	0.066	0.164	0.002	0.588
-0.121	0.108	0.229	0.006	-0.175	0.169	-0.081	0.171	0.068	0.167	0.004	0.589
-0.114	0.113	0.226	0	-0.171	0.17	-0.078	0.174	0.072	0.171	0.008	0.594
-0.12	0.107	0.227	0.006	-0.174	0.168	-0.079	0.17	0.07	0.169	0.006	0.593
-0.122	0.103	0.225	0.009	-0.173	0.165	-0.074	0.172	0.07	0.169	0.005	0.591
-0.131	0.102	0.232	0.015	-0.181	0.167	-0.078	0.174	0.073	0.17	0.005	0.59
-0.13	0.105	0.234	0.012	-0.182	0.17	-0.082	0.172	0.07	0.169	0.005	0.591
-0.128	0.104	0.232	0.011	-0.18	0.169	-0.078	0.172	0.07	0.168	0.005	0.591
-0.13	0.101	0.23	0.015	-0.18	0.166	-0.082	0.171	0.07	0.169	0.004	0.589
-0.127	0.098	0.224	0.015	-0.176	0.162	-0.082	0.173	0.072	0.172	0.006	0.59
-0.133	0.09	0.223	0.021	-0.178	0.157	-0.082	0.172	0.07	0.169	0.004	0.586
-0.123	0.108	0.231	0.007	-0.177	0.17	-0.081	0.175	0.075	0.174	0.009	0.592
-0.12	0.113	0.233	0.004	-0.177	0.173	-0.078	0.175	0.074	0.175	0.011	0.596
-0.124	0.103	0.227	0.011	-0.176	0.166	-0.086	0.166	0.068	0.169	0.005	0.589
-0.123	0.109	0.232	0.007	-0.178	0.171	-0.082	0.172	0.072	0.175	0.009	0.591
-0.127	0.106	0.233	0.011	-0.18	0.17	-0.081	0.175	0.075	0.176	0.013	0.594
-0.127	0.106	0.233	0.01	-0.18	0.17	-0.081	0.167	0.071	0.172	0.009	0.593
-0.12	0.109	0.229	0.005	-0.174	0.169	-0.079	0.169	0.071	0.173	0.01	0.593
-0.108	0.111	0.218	-0.002	-0.164	0.165	-0.083	0.172	0.072	0.174	0.012	0.594
-0.115	0.11	0.223	0.003	-0.17	0.167	-0.083	0.17	0.07	0.173	0.011	0.594
-0.121	0.114	0.235	0.004	-0.179	0.175	-0.082	0.173	0.075	0.175	0.013	0.597
-0.123	0.114	0.236	0.004	-0.18	0.175	-0.079	0.176	0.076	0.177	0.015	0.599
-0.126	0.111	0.235	0.007	-0.181	0.173	-0.08	0.173	0.075	0.177	0.015	0.599
-0.132	0.114	0.244	0.009	-0.188	0.179	-0.081	0.172	0.076	0.177	0.013	0.598
-0.131	0.112	0.242	0.009	-0.186	0.177	-0.085	0.169	0.071	0.175	0.011	0.596
-0.12	0.115	0.234	0.003	-0.178	0.175	-0.086	0.169	0.073	0.174	0.012	0.595
-0.121	0.112	0.233	0.005	-0.177	0.172	-0.084	0.172	0.074	0.174	0.011	0.593
-0.115	0.116	0.23	-0.001	-0.172	0.173	-0.083	0.172	0.074	0.174	0.011	0.594
-0.118	0.122	0.239	-0.002	-0.179	0.181	-0.076	0.174	0.077	0.176	0.014	0.595
-0.123	0.118	0.241	0.003	-0.183	0.18	-0.08	0.172	0.074	0.176	0.015	0.595
-0.111	0.118	0.228	-0.004	-0.17	0.174	-0.084	0.175	0.076	0.179	0.016	0.599
-0.107	0.117	0.223	-0.005	-0.166	0.171	-0.086	0.171	0.073	0.176	0.014	0.596
-0.107	0.116	0.222	-0.004	-0.165	0.169	-0.086	0.17	0.071	0.175	0.013	0.596
-0.122	0.111	0.233	0.005	-0.177	0.172	-0.081	0.176	0.076	0.178	0.017	0.6
-0.131	0.107	0.237	0.011	-0.184	0.173	-0.084	0.175	0.077	0.178	0.018	0.601
-0.132	0.108	0.239	0.012	-0.186	0.174	-0.08	0.174	0.076	0.18	0.018	0.603
-0.119	0.115	0.233	0.002	-0.176	0.174	-0.077	0.174	0.077	0.178	0.018	0.603
-0.104	0.114	0.218	-0.004	-0.162	0.166	-0.083	0.173	0.077	0.178	0.018	0.602
-0.114	0.11	0.224	0.002	-0.169	0.168	-0.081	0.175	0.077	0.18	0.018	0.603
-0.116	0.113	0.228	0.002	-0.172	0.171	-0.082	0.174	0.077	0.18	0.019	0.606
-0.123	0.103	0.226	0.01	-0.175	0.166	-0.088	0.171	0.075	0.178	0.02	0.605
-0.129	0.097	0.226	0.016	-0.178	0.162	-0.086	0.175	0.077	0.18	0.021	0.604
-0.126	0.098	0.224	0.014	-0.175	0.162	-0.081	0.176	0.078	0.18	0.019	0.601
-0.116	0.104	0.22	0.005	-0.168	0.163	-0.081	0.172	0.075	0.179	0.018	0.6
-0.112	0.108	0.22	0.002	-0.167	0.165	-0.079	0.174	0.076	0.18	0.021	0.603
-0.116	0.105	0.221	0.005	-0.169	0.164	-0.083	0.172	0.073	0.174	0.015	0.599
-0.113	0.108	0.221	0.003	-0.167	0.165	-0.082	0.173	0.074	0.174	0.013	0.598
-0.118	0.106	0.223	0.006	-0.171	0.165	-0.082	0.173	0.075	0.175	0.015	0.598
-0.119	0.108	0.227	0.005	-0.173	0.168	-0.086	0.166	0.071	0.172	0.015	0.597
-0.105	0.119	0.224	-0.006	-0.166	0.172	-0.083	0.172	0.076	0.176	0.019	0.6
-0.108	0.116	0.224	-0.004	-0.167	0.171	-0.077	0.175	0.077	0.179	0.02	0.602
-0.114	0.117	0.231	-0.002	-0.173	0.174	-0.083	0.171	0.072	0.173	0.015	0.597
-0.106	0.12	0.226	-0.007	-0.166	0.173	-0.086	0.17	0.072	0.173	0.016	0.598
-0.111	0.119	0.23	-0.004	-0.17	0.175	-0.084	0.17	0.072	0.176	0.018	0.6
-0.116	0.119	0.234	-0.002	-0.175	0.177	-0.086	0.171	0.073	0.174	0.017	0.599
-0.112	0.113	0.224	-0.001	-0.168	0.169	-0.088	0.171	0.074	0.176	0.018	0.6
-0.113	0.111	0.223	0.001	-0.168	0.168	-0.087	0.167	0.069	0.173	0.015	0.599
-0.12	0.112	0.232	0.004	-0.176	0.172	-0.082	0.169	0.07	0.172	0.015	0.599
-0.119	0.113	0.232	0.004	-0.176	0.172	-0.08	0.172	0.072	0.175	0.018	0.601
-0.117	0.115	0.232	0.002	-0.175	0.174	-0.082	0.17	0.073	0.178	0.021	0.603
-0.119	0.117	0.236	0.001	-0.178	0.177	-0.082	0.173	0.076	0.177	0.019	0.604
-0.123	0.113	0.235	0.005	-0.18	0.174	-0.08	0.171	0.075	0.176	0.018	0.601
-0.122	0.11	0.231	0.006	-0.177	0.171	-0.081	0.166	0.07	0.174	0.016	0.597
-0.12	0.106	0.226	0.007	-0.173	0.167	-0.082	0.165	0.067	0.169	0.009	0.593
-0.119	0.104	0.224	0.007	-0.172	0.165	-0.085	0.166	0.066	0.168	0.007	0.591
-0.114	0.111	0.224	0.002	-0.17	0.168	-0.09	0.166	0.066	0.169	0.009	0.592
-0.116	0.115	0.23	0.001	-0.173	0.173	-0.085	0.166	0.068	0.172	0.013	0.596
-0.112	0.117	0.227	-0.003	-0.17	0.172	-0.084	0.163	0.068	0.173	0.014	0.599
-0.115	0.109	0.223	0.003	-0.17	0.167	-0.088	0.163	0.069	0.172	0.013	0.596
-0.118	0.111	0.229	0.004	-0.174	0.17	-0.082	0.168	0.071	0.175	0.016	0.597
-0.111	0.114	0.224	-0.002	-0.168	0.169	-0.077	0.172	0.072	0.178	0.019	0.599
-0.111	0.108	0.219	0.001	-0.166	0.165	-0.081	0.172	0.073	0.175	0.017	0.599
-0.114	0.104	0.217	0.005	-0.166	0.161	-0.082	0.169	0.07	0.174	0.017	0.598
-0.12	0.098	0.217	0.011	-0.169	0.158	-0.08	0.168	0.07	0.174	0.018	0.6
-0.121	0.104	0.225	0.009	-0.173	0.165	-0.082	0.167	0.068	0.172	0.015	0.599
-0.117	0.109	0.226	0.004	-0.172	0.168	-0.083	0.166	0.069	0.174	0.017	0.599
-0.115	0.11	0.224	0.002	-0.17	0.168	-0.076	0.168	0.07	0.175	0.018	0.6
-0.117	0.111	0.227	0.003	-0.172	0.17	-0.077	0.17	0.071	0.175	0.019	0.601
-0.116	0.108	0.223	0.004	-0.17	0.166	-0.077	0.171	0.072	0.176	0.019	0.602
-0.114	0.108	0.222	0.003	-0.168	0.166	-0.076	0.171	0.071	0.177	0.018	0.603
-0.114	0.11	0.224	0.002	-0.169	0.167	-0.08	0.171	0.071	0.176	0.019	0.602
-0.111	0.108	0.22	0.001	-0.166	0.165	-0.077	0.168	0.07	0.175	0.018	0.602
-0.121	0.096	0.217	0.013	-0.17	0.157	-0.076	0.166	0.069	0.174	0.016	0.599
-0.121	0.093	0.213	0.014	-0.168	0.154	-0.077	0.168	0.069	0.172	0.015	0.596
-0.116	0.098	0.213	0.009	-0.165	0.156	-0.076	0.169	0.069	0.173	0.017	0.598
-0.114	0.103	0.216	0.005	-0.166	0.16	-0.075	0.168	0.069	0.174	0.015	0.599
-0.116	0.102	0.218	0.006	-0.168	0.161	-0.074	0.169	0.07	0.176	0.018	0.6
-0.122	0.099	0.221	0.011	-0.172	0.16	-0.073	0.171	0.071	0.176	0.018	0.6
-0.118	0.102	0.221	0.008	-0.171	0.162	-0.075	0.169	0.07	0.173	0.015	0.597
-0.12	0.1	0.22	0.01	-0.171	0.161	-0.074	0.172	0.071	0.173	0.016	0.597
-0.12	0.098	0.218	0.011	-0.17	0.159	-0.071	0.175	0.072	0.177	0.018	0.6
-0.124	0.102	0.225	0.011	-0.175	0.164	-0.073	0.171	0.071	0.174	0.017	0.599
-0.127	0.105	0.232	0.011	-0.18	0.17	-0.075	0.17	0.069	0.173	0.017	0.598
-0.122	0.107	0.229	0.007	-0.176	0.169	-0.072	0.171	0.069	0.176	0.018	0.599
-0.119	0.112	0.231	0.004	-0.175	0.172	-0.077	0.168	0.069	0.173	0.016	0.598
-0.115	0.117	0.231	-0.001	-0.173	0.174	-0.082	0.167	0.069	0.173	0.017	0.6
-0.11	0.117	0.227	-0.004	-0.169	0.172	-0.081	0.171	0.07	0.177	0.019	0.602
-0.111	0.122	0.231	-0.005	-0.171	0.177	-0.084	0.171	0.07	0.177	0.021	0.601
-0.104	0.131	0.234	-0.013	-0.17	0.182	-0.086	0.17	0.07	0.177	0.022	0.604
-0.101	0.135	0.235	-0.017	-0.169	0.185	-0.091	0.166	0.068	0.175	0.021	0.604
-0.102	0.141	0.241	-0.019	-0.172	0.192	-0.093	0.166	0.07	0.177	0.022	0.606
-0.098	0.145	0.242	-0.024	-0.171	0.195	-0.087	0.173	0.075	0.181	0.025	0.61
-0.099	0.147	0.245	-0.024	-0.172	0.197	-0.087	0.177	0.077	0.182	0.027	0.611
-0.101	0.152	0.253	-0.026	-0.177	0.203	-0.087	0.177	0.076	0.184	0.028	0.611
-0.1	0.156	0.256	-0.028	-0.178	0.206	-0.084	0.178	0.08	0.185	0.029	0.612
-0.096	0.158	0.253	-0.032	-0.174	0.206	-0.085	0.18	0.08	0.184	0.029	0.612
-0.09	0.165	0.254	-0.037	-0.172	0.209	-0.089	0.179	0.081	0.185	0.03	0.614
-0.084	0.17	0.253	-0.043	-0.169	0.211	-0.089	0.186	0.088	0.193	0.035	0.618
-0.086	0.167	0.251	-0.041	-0.169	0.209	-0.091	0.189	0.088	0.192	0.035	0.616
-0.086	0.166	0.251	-0.04	-0.169	0.208	-0.09	0.19	0.088	0.193	0.034	0.616
-0.082	0.167	0.248	-0.043	-0.166	0.208	-0.084	0.194	0.089	0.195	0.036	0.617
-0.086	0.168	0.253	-0.041	-0.17	0.21	-0.086	0.192	0.089	0.192	0.035	0.617
-0.09	0.164	0.254	-0.037	-0.172	0.209	-0.087	0.193	0.089	0.193	0.034	0.618
-0.081	0.165	0.245	-0.042	-0.164	0.206	-0.088	0.193	0.087	0.193	0.033	0.616
-0.069	0.173	0.241	-0.052	-0.155	0.208	-0.087	0.195	0.091	0.195	0.035	0.617
-0.078	0.172	0.249	-0.047	-0.165	0.211	-0.088	0.195	0.09	0.193	0.034	0.616
-0.088	0.162	0.249	-0.037	-0.17	0.206	-0.09	0.194	0.089	0.191	0.032	0.612
-0.088	0.167	0.255	-0.04	-0.172	0.211	-0.087	0.201	0.097	0.199	0.04	0.619
-0.082	0.18	0.261	-0.05	-0.172	0.222	-0.087	0.204	0.101	0.204	0.046	0.627
-0.072	0.185	0.257	-0.056	-0.165	0.221	-0.092	0.202	0.098	0.202	0.044	0.626
-0.082	0.189	0.271	-0.053	-0.177	0.23	-0.099	0.2	0.097	0.2	0.043	0.625
-0.082	0.187	0.268	-0.052	-0.175	0.228	-0.098	0.203	0.1	0.202	0.043	0.625
-0.083	0.178	0.26	-0.048	-0.172	0.22	-0.101	0.203	0.1	0.201	0.041	0.62
-0.09	0.176	0.266	-0.043	-0.178	0.221	-0.105	0.203	0.1	0.201	0.042	0.622
-0.083	0.179	0.262	-0.048	-0.173	0.221	-0.107	0.201	0.096	0.2	0.038	0.621
-0.077	0.182	0.26	-0.052	-0.169	0.222	-0.116	0.193	0.09	0.195	0.034	0.618
-0.073	0.185	0.258	-0.056	-0.166	0.222	-0.117	0.196	0.092	0.197	0.037	0.621
-0.074	0.187	0.26	-0.057	-0.168	0.224	-0.122	0.196	0.093	0.197	0.039	0.624
-0.074	0.188	0.263	-0.057	-0.169	0.226	-0.124	0.192	0.09	0.195	0.036	0.621
-0.069	0.193	0.261	-0.062	-0.166	0.228	-0.121	0.193	0.092	0.196	0.038	0.624
-0.059	0.201	0.259	-0.07	-0.16	0.231	-0.13	0.196	0.097	0.2	0.043	0.627
-0.059	0.206	0.265	-0.074	-0.163	0.236	-0.134	0.193	0.095	0.199	0.042	0.629
-0.064	0.211	0.275	-0.074	-0.17	0.244	-0.136	0.189	0.092	0.2	0.044	0.633
-0.059	0.208	0.266	-0.075	-0.163	0.237	-0.14	0.193	0.096	0.203	0.048	0.635
-0.041	0.216	0.257	-0.088	-0.149	0.237	-0.14	0.194	0.101	0.207	0.053	0.642
-0.035	0.232	0.266	-0.098	-0.151	0.249	-0.149	0.19	0.099	0.206	0.052	0.642
-0.038	0.235	0.274	-0.099	-0.157	0.255	-0.156	0.184	0.095	0.205	0.053	0.646
-0.033	0.24	0.272	-0.103	-0.153	0.257	-0.16	0.185	0.098	0.209	0.059	0.65
-0.034	0.236	0.269	-0.102	-0.152	0.254	-0.163	0.183	0.098	0.211	0.061	0.651
-0.025	0.234	0.258	-0.105	-0.142	0.246	-0.162	0.18	0.098	0.21	0.062	0.652
-0.024	0.239	0.263	-0.108	-0.144	0.252	-0.164	0.18	0.097	0.208	0.06	0.65
-0.029	0.239	0.268	-0.104	-0.149	0.254	-0.162	0.18	0.097	0.209	0.059	0.651
-0.03	0.237	0.267	-0.103	-0.149	0.253	-0.165	0.177	0.096	0.209	0.059	0.65
-0.044	0.242	0.285	-0.099	-0.165	0.264	-0.158	0.179	0.098	0.211	0.065	0.654
-0.037	0.246	0.283	-0.104	-0.161	0.266	-0.164	0.179	0.098	0.212	0.066	0.655
-0.036	0.248	0.284	-0.106	-0.161	0.267	-0.171	0.172	0.095	0.211	0.065	0.655
-0.035	0.252	0.286	-0.108	-0.162	0.27	-0.164	0.173	0.097	0.212	0.068	0.657
-0.013	0.259	0.271	-0.123	-0.142	0.266	-0.169	0.175	0.098	0.216	0.07	0.661
-0.002	0.256	0.257	-0.127	-0.13	0.257	-0.173	0.166	0.09	0.21	0.067	0.658
0.007	0.252	0.243	-0.129	-0.119	0.248	-0.177	0.159	0.087	0.208	0.065	0.655
0.014	0.25	0.235	-0.132	-0.112	0.243	-0.175	0.166	0.092	0.213	0.07	0.659
0.011	0.242	0.232	-0.127	-0.112	0.237	-0.175	0.161	0.086	0.206	0.062	0.653
0.006	0.234	0.228	-0.12	-0.111	0.232	-0.174	0.159	0.086	0.206	0.059	0.653
0.012	0.224	0.211	-0.118	-0.1	0.218	-0.174	0.163	0.088	0.208	0.062	0.653
0.008	0.217	0.209	-0.113	-0.101	0.214	-0.171	0.161	0.086	0.207	0.062	0.652
-0.011	0.21	0.221	-0.1	-0.117	0.216	-0.163	0.17	0.094	0.212	0.067	0.656
-0.024	0.2	0.223	-0.088	-0.124	0.212	-0.167	0.169	0.091	0.209	0.063	0.653
-0.025	0.193	0.217	-0.084	-0.122	0.205	-0.17	0.163	0.086	0.205	0.06	0.651
-0.018	0.194	0.211	-0.088	-0.116	0.203	-0.164	0.169	0.092	0.211	0.064	0.656
-0.011	0.2	0.21	-0.095	-0.111	0.205	-0.165	0.165	0.087	0.207	0.061	0.653
-0.005	0.199	0.203	-0.097	-0.104	0.202	-0.168	0.155	0.08	0.197	0.053	0.645
-0.001	0.196	0.196	-0.098	-0.099	0.197	-0.165	0.158	0.079	0.197	0.052	0.643
0.003	0.197	0.194	-0.1	-0.096	0.196	-0.168	0.155	0.081	0.199	0.054	0.646
0.004	0.193	0.188	-0.099	-0.092	0.191	-0.167	0.154	0.081	0.198	0.053	0.646
-0.011	0.181	0.193	-0.085	-0.102	0.187	-0.158	0.153	0.076	0.193	0.045	0.639
-0.02	0.178	0.198	-0.079	-0.11	0.189	-0.157	0.15	0.076	0.191	0.046	0.639
-0.021	0.175	0.196	-0.077	-0.108	0.186	-0.157	0.151	0.075	0.193	0.048	0.641
-0.019	0.171	0.19	-0.076	-0.105	0.181	-0.15	0.154	0.078	0.193	0.045	0.639
-0.024	0.164	0.187	-0.07	-0.106	0.176	-0.145	0.154	0.075	0.188	0.043	0.636
-0.029	0.152	0.18	-0.061	-0.105	0.167	-0.147	0.151	0.071	0.185	0.036	0.632
-0.025	0.14	0.165	-0.057	-0.096	0.153	-0.145	0.152	0.072	0.186	0.037	0.632
-0.037	0.134	0.171	-0.049	-0.104	0.153	-0.146	0.147	0.066	0.18	0.032	0.628
-0.043	0.133	0.176	-0.045	-0.11	0.155	-0.143	0.143	0.062	0.177	0.029	0.626
-0.05	0.126	0.174	-0.038	-0.113	0.15	-0.138	0.148	0.065	0.178	0.028	0.624
-0.051	0.122	0.173	-0.035	-0.113	0.148	-0.131	0.15	0.064	0.178	0.027	0.621
-0.056	0.119	0.173	-0.032	-0.115	0.147	-0.129	0.146	0.061	0.174	0.024	0.62
-0.071	0.114	0.184	-0.021	-0.129	0.15	-0.129	0.141	0.054	0.166	0.014	0.611
-0.082	0.11	0.192	-0.014	-0.137	0.151	-0.118	0.138	0.048	0.161	0.009	0.606
-0.081	0.109	0.189	-0.014	-0.136	0.149	-0.12	0.136	0.049	0.16	0.008	0.606
-0.078	0.112	0.19	-0.017	-0.135	0.151	-0.116	0.14	0.051	0.16	0.007	0.603
-0.096	0.112	0.206	-0.008	-0.151	0.16	-0.108	0.138	0.048	0.158	0.005	0.601
-0.118	0.1	0.218	0.009	-0.169	0.16	-0.106	0.138	0.048	0.157	0.003	0.598
-0.133	0.096	0.228	0.018	-0.18	0.163	-0.098	0.139	0.046	0.156	0	0.594
-0.134	0.104	0.237	0.015	-0.186	0.171	-0.096	0.143	0.051	0.158	0.003	0.595
-0.142	0.1	0.242	0.021	-0.193	0.172	-0.092	0.146	0.051	0.16	0.004	0.594
-0.139	0.091	0.231	0.024	-0.185	0.162	-0.102	0.135	0.042	0.148	-0.007	0.585
-0.128	0.092	0.218	0.018	-0.173	0.156	-0.102	0.131	0.038	0.146	-0.009	0.582
-0.12	0.095	0.215	0.013	-0.169	0.155	-0.094	0.135	0.04	0.148	-0.009	0.583
-0.118	0.089	0.207	0.015	-0.163	0.148	-0.099	0.134	0.038	0.144	-0.013	0.579
-0.14	0.081	0.221	0.03	-0.181	0.151	-0.095	0.133	0.038	0.146	-0.012	0.58
-0.141	0.085	0.226	0.029	-0.184	0.155	-0.087	0.143	0.048	0.153	-0.006	0.586
-0.145	0.088	0.233	0.029	-0.19	0.161	-0.086	0.142	0.045	0.152	-0.006	0.585
-0.141	0.085	0.225	0.029	-0.183	0.155	-0.087	0.138	0.041	0.149	-0.012	0.581
-0.122	0.085	0.206	0.018	-0.165	0.146	-0.095	0.138	0.041	0.147	-0.015	0.579
-0.124	0.085	0.208	0.02	-0.167	0.147	-0.092	0.136	0.036	0.143	-0.018	0.575
-0.122	0.079	0.201	0.022	-0.162	0.141	-0.083	0.136	0.037	0.142	-0.02	0.571
-0.123	0.08	0.203	0.022	-0.164	0.142	-0.087	0.137	0.039	0.142	-0.019	0.572
-0.121	0.084	0.204	0.018	-0.163	0.144	-0.088	0.142	0.042	0.148	-0.015	0.577
-0.122	0.085	0.207	0.018	-0.165	0.146	-0.081	0.144	0.043	0.149	-0.012	0.579
-0.128	0.09	0.218	0.019	-0.173	0.154	-0.077	0.147	0.046	0.152	-0.012	0.582
-0.123	0.095	0.217	0.014	-0.171	0.157	-0.076	0.144	0.045	0.151	-0.015	0.58
-0.127	0.089	0.216	0.019	-0.172	0.153	-0.074	0.144	0.044	0.148	-0.015	0.577
-0.134	0.079	0.211	0.028	-0.173	0.145	-0.079	0.141	0.042	0.146	-0.019	0.573
-0.149	0.067	0.216	0.042	-0.183	0.142	-0.083	0.135	0.035	0.137	-0.028	0.566
-0.16	0.065	0.224	0.047	-0.193	0.145	-0.083	0.136	0.033	0.136	-0.03	0.562
-0.139	0.073	0.212	0.033	-0.175	0.143	-0.086	0.132	0.032	0.133	-0.032	0.56
-0.135	0.075	0.209	0.03	-0.172	0.142	-0.086	0.134	0.034	0.135	-0.03	0.562
-0.145	0.076	0.221	0.035	-0.184	0.149	-0.082	0.14	0.038	0.141	-0.023	0.568
-0.15	0.076	0.227	0.037	-0.189	0.152	-0.075	0.141	0.038	0.14	-0.025	0.568
-0.155	0.07	0.225	0.043	-0.191	0.148	-0.076	0.139	0.037	0.14	-0.025	0.566
-0.155	0.07	0.225	0.043	-0.191	0.148	-0.075	0.143	0.041	0.145	-0.019	0.572
-0.152	0.072	0.224	0.04	-0.189	0.148	-0.077	0.141	0.037	0.14	-0.024	0.568
-0.157	0.07	0.227	0.043	-0.192	0.149	-0.076	0.138	0.035	0.137	-0.026	0.567
-0.153	0.072	0.226	0.041	-0.19	0.149	-0.073	0.145	0.041	0.142	-0.023	0.569
-0.143	0.075	0.218	0.035	-0.181	0.147	-0.079	0.143	0.042	0.143	-0.021	0.569
-0.138	0.072	0.21	0.033	-0.174	0.141	-0.073	0.144	0.042	0.146	-0.018	0.573
-0.141	0.073	0.213	0.034	-0.177	0.143	-0.076	0.141	0.04	0.143	-0.021	0.569
-0.153	0.07	0.223	0.042	-0.188	0.146	-0.075	0.136	0.036	0.138	-0.026	0.566
-0.147	0.066	0.212	0.04	-0.18	0.14	-0.072	0.14	0.038	0.14	-0.025	0.567
-0.146	0.068	0.212	0.039	-0.18	0.141	-0.079	0.139	0.035	0.138	-0.025	0.567
-0.143	0.068	0.21	0.038	-0.177	0.14	-0.082	0.133	0.032	0.136	-0.029	0.566
-0.134	0.07	0.203	0.032	-0.169	0.137	-0.081	0.14	0.037	0.14	-0.026	0.567
-0.143	0.071	0.214	0.036	-0.179	0.143	-0.072	0.145	0.043	0.143	-0.022	0.57
-0.143	0.07	0.212	0.036	-0.178	0.141	-0.075	0.141	0.039	0.141	-0.025	0.569
-0.139	0.065	0.203	0.037	-0.172	0.135	-0.083	0.14	0.038	0.141	-0.026	0.567
-0.139	0.065	0.203	0.037	-0.172	0.135	-0.078	0.141	0.039	0.14	-0.028	0.567
-0.136	0.065	0.2	0.035	-0.169	0.133	-0.076	0.139	0.035	0.139	-0.029	0.566
-0.143	0.064	0.206	0.04	-0.175	0.136	-0.079	0.135	0.033	0.137	-0.029	0.565
-0.146	0.068	0.213	0.039	-0.18	0.141	-0.074	0.141	0.039	0.141	-0.023	0.57
-0.137	0.071	0.207	0.033	-0.172	0.14	-0.071	0.149	0.046	0.146	-0.021	0.571
-0.138	0.067	0.204	0.035	-0.172	0.136	-0.069	0.146	0.043	0.145	-0.021	0.569
-0.144	0.062	0.205	0.041	-0.175	0.134	-0.071	0.145	0.043	0.145	-0.021	0.57
-0.144	0.061	0.205	0.042	-0.175	0.134	-0.073	0.145	0.043	0.146	-0.019	0.572
-0.146	0.058	0.203	0.044	-0.175	0.131	-0.07	0.145	0.043	0.144	-0.018	0.573
-0.147	0.059	0.205	0.044	-0.177	0.133	-0.066	0.146	0.043	0.144	-0.021	0.57
-0.149	0.057	0.205	0.046	-0.178	0.132	-0.07	0.143	0.04	0.141	-0.024	0.568
-0.147	0.06	0.207	0.043	-0.177	0.134	-0.069	0.142	0.04	0.141	-0.025	0.568
-0.148	0.067	0.215	0.04	-0.182	0.141	-0.069	0.143	0.04	0.141	-0.025	0.569
-0.146	0.062	0.208	0.042	-0.178	0.136	-0.073	0.145	0.041	0.143	-0.021	0.571
-0.147	0.061	0.208	0.043	-0.179	0.136	-0.066	0.143	0.038	0.143	-0.021	0.573
-0.151	0.064	0.213	0.043	-0.182	0.139	-0.069	0.144	0.041	0.145	-0.018	0.574
-0.153	0.059	0.212	0.048	-0.183	0.136	-0.069	0.146	0.043	0.144	-0.018	0.571
-0.16	0.057	0.215	0.051	-0.188	0.137	-0.062	0.144	0.04	0.141	-0.023	0.569
-0.153	0.061	0.214	0.046	-0.184	0.139	-0.066	0.145	0.043	0.145	-0.02	0.572
-0.153	0.059	0.211	0.047	-0.182	0.136	-0.068	0.145	0.042	0.142	-0.024	0.569
-0.144	0.057	0.201	0.044	-0.173	0.13	-0.07	0.143	0.041	0.141	-0.025	0.567
-0.14	0.059	0.199	0.041	-0.17	0.13	-0.067	0.142	0.041	0.142	-0.023	0.569
-0.14	0.062	0.202	0.038	-0.171	0.133	-0.064	0.144	0.043	0.144	-0.021	0.57
-0.14	0.061	0.201	0.039	-0.171	0.132	-0.066	0.147	0.047	0.147	-0.018	0.571
-0.159	0.049	0.206	0.055	-0.183	0.128	-0.063	0.147	0.045	0.147	-0.019	0.572
-0.166	0.049	0.214	0.059	-0.19	0.132	-0.057	0.151	0.049	0.151	-0.015	0.576
-0.174	0.051	0.225	0.061	-0.2	0.139	-0.054	0.151	0.05	0.15	-0.015	0.574
-0.164	0.057	0.221	0.053	-0.193	0.139	-0.056	0.148	0.048	0.149	-0.015	0.575
-0.141	0.058	0.199	0.042	-0.171	0.129	-0.061	0.146	0.047	0.148	-0.016	0.574
-0.14	0.051	0.19	0.045	-0.166	0.121	-0.062	0.146	0.044	0.143	-0.022	0.567
-0.128	0.053	0.18	0.037	-0.155	0.117	-0.067	0.146	0.044	0.144	-0.021	0.567
-0.127	0.053	0.179	0.037	-0.153	0.117	-0.07	0.142	0.042	0.143	-0.021	0.566
-0.148	0.053	0.201	0.047	-0.174	0.128	-0.069	0.141	0.041	0.139	-0.024	0.564
-0.155	0.059	0.214	0.049	-0.185	0.137	-0.063	0.146	0.045	0.145	-0.018	0.57
-0.154	0.063	0.216	0.045	-0.186	0.14	-0.059	0.145	0.043	0.145	-0.019	0.57
-0.165	0.057	0.221	0.054	-0.193	0.139	-0.064	0.141	0.038	0.14	-0.026	0.565
-0.162	0.054	0.215	0.053	-0.189	0.136	-0.065	0.141	0.038	0.141	-0.024	0.564
-0.15	0.059	0.208	0.045	-0.179	0.134	-0.066	0.141	0.038	0.14	-0.024	0.562
-0.146	0.066	0.211	0.041	-0.179	0.139	-0.065	0.144	0.04	0.141	-0.025	0.562
-0.147	0.066	0.212	0.041	-0.18	0.14	-0.069	0.138	0.034	0.133	-0.034	0.554
-0.17	0.074	0.243	0.048	-0.207	0.16	-0.061	0.133	0.025	0.122	-0.043	0.545
-0.182	0.09	0.272	0.046	-0.228	0.181	-0.053	0.135	0.023	0.119	-0.049	0.541
-0.204	0.094	0.298	0.056	-0.252	0.197	-0.042	0.136	0.019	0.112	-0.057	0.534
-0.224	0.099	0.322	0.062	-0.274	0.211	-0.026	0.141	0.019	0.107	-0.066	0.523
-0.253	0.104	0.357	0.074	-0.305	0.231	-0.012	0.157	0.025	0.108	-0.069	0.517
-0.276	0.128	0.403	0.074	-0.34	0.266	0.006	0.167	0.028	0.107	-0.074	0.511
-0.237	0.147	0.384	0.045	-0.311	0.266	-0.004	0.155	0.013	0.087	-0.097	0.487
-0.235	0.158	0.393	0.039	-0.315	0.276	0.001	0.162	0.015	0.086	-0.103	0.479
-0.25	0.171	0.42	0.04	-0.336	0.296	0.013	0.178	0.026	0.093	-0.102	0.479
-0.232	0.186	0.417	0.023	-0.325	0.302	0.008	0.188	0.033	0.096	-0.098	0.48
-0.214	0.211	0.425	0.002	-0.32	0.319	0.015	0.21	0.054	0.117	-0.08	0.496
-0.2	0.22	0.418	-0.01	-0.309	0.32	0.011	0.227	0.072	0.133	-0.065	0.506
-0.165	0.231	0.395	-0.033	-0.28	0.314	-0.001	0.253	0.104	0.166	-0.03	0.533
-0.123	0.234	0.357	-0.055	-0.24	0.296	-0.005	0.299	0.158	0.223	0.026	0.577
-0.088	0.222	0.309	-0.067	-0.2	0.267	-0.006	0.341	0.207	0.271	0.073	0.605
-0.043	0.221	0.263	-0.089	-0.153	0.242	-0.009	0.391	0.268	0.332	0.13	0.645
0.001	0.222	0.221	-0.112	-0.11	0.222	-0.011	0.436	0.327	0.395	0.198	0.702
0.036	0.234	0.197	-0.135	-0.081	0.215	-0.018	0.461	0.363	0.44	0.253	0.752
0.089	0.259	0.169	-0.173	-0.041	0.214	-0.046	0.485	0.408	0.497	0.324	0.823
0.175	0.279	0.103	-0.227	0.035	0.191	-0.082	0.511	0.459	0.562	0.407	0.902
0.247	0.291	0.043	-0.269	0.102	0.167	-0.11	0.547	0.519	0.635	0.495	0.987
0.308	0.307	-0.002	-0.308	0.155	0.153	-0.143	0.578	0.582	0.714	0.597	1.083
0.384	0.328	-0.057	-0.355	0.22	0.136	-0.17	0.622	0.65	0.8	0.701	1.18
0.463	0.344	-0.119	-0.403	0.29	0.112	-0.184	0.691	0.742	0.902	0.817	1.278
0.546	0.359	-0.187	-0.453	0.366	0.086	-0.209	0.753	0.837	1.013	0.948	1.392
0.629	0.38	-0.25	-0.505	0.439	0.066	-0.234	0.818	0.929	1.123	1.077	1.508
0.694	0.405	-0.29	-0.549	0.491	0.058	-0.252	0.871	1.004	1.208	1.181	1.601
0.755	0.441	-0.315	-0.599	0.535	0.063	-0.286	0.887	1.042	1.261	1.254	1.679
0.809	0.475	-0.335	-0.642	0.572	0.07	-0.32	0.889	1.06	1.294	1.307	1.744
0.843	0.511	-0.333	-0.676	0.588	0.089	-0.344	0.894	1.083	1.328	1.358	1.8
0.888	0.56	-0.329	-0.724	0.608	0.116	-0.392	0.875	1.091	1.354	1.408	1.857
0.952	0.611	-0.342	-0.78	0.646	0.135	-0.444	0.853	1.103	1.387	1.472	1.933
1.005	0.67	-0.336	-0.837	0.669	0.168	-0.504	0.803	1.087	1.395	1.507	1.986
1.028	0.719	-0.31	-0.873	0.669	0.204	-0.569	0.72	1.033	1.365	1.501	2.008
1.05	0.742	-0.309	-0.896	0.679	0.217	-0.597	0.678	1.011	1.36	1.511	2.031
1.06	0.743	-0.318	-0.901	0.689	0.213	-0.609	0.634	0.975	1.333	1.494	2.025
1.048	0.724	-0.324	-0.886	0.685	0.201	-0.632	0.558	0.908	1.276	1.448	1.994
1.029	0.726	-0.304	-0.877	0.666	0.211	-0.658	0.457	0.808	1.183	1.363	1.938
1.025	0.689	-0.337	-0.857	0.68	0.176	-0.673	0.379	0.728	1.107	1.284	1.874
1.012	0.596	-0.416	-0.804	0.714	0.09	-0.667	0.325	0.661	1.038	1.201	1.798
0.957	0.492	-0.466	-0.724	0.711	0.013	-0.645	0.249	0.559	0.925	1.07	1.684
0.87	0.411	-0.459	-0.64	0.663	-0.024	-0.619	0.154	0.436	0.792	0.925	1.569
0.769	0.362	-0.407	-0.566	0.588	-0.022	-0.603	0.044	0.289	0.635	0.76	1.448
0.701	0.293	-0.408	-0.497	0.554	-0.058	-0.601	-0.046	0.172	0.509	0.62	1.335
0.61	0.231	-0.379	-0.42	0.494	-0.074	-0.573	-0.12	0.063	0.387	0.478	1.217
0.494	0.163	-0.332	-0.329	0.412	-0.085	-0.525	-0.186	-0.048	0.254	0.322	1.085
0.369	0.107	-0.262	-0.238	0.315	-0.076	-0.475	-0.259	-0.16	0.126	0.176	0.958
0.229	0.087	-0.141	-0.158	0.184	-0.026	-0.415	-0.342	-0.287	-0.019	0.015	0.831
0.116	0.06	-0.056	-0.087	0.086	0.002	-0.376	-0.409	-0.398	-0.149	-0.134	0.708
0.044	0.032	-0.013	-0.038	0.028	0.01	-0.343	-0.457	-0.481	-0.249	-0.255	0.601
-0.011	0.014	0.025	-0.001	-0.019	0.02	-0.304	-0.489	-0.537	-0.321	-0.342	0.521
-0.081	-0.006	0.074	0.044	-0.078	0.035	-0.254	-0.487	-0.562	-0.36	-0.396	0.465
-0.154	-0.037	0.117	0.096	-0.137	0.041	-0.217	-0.501	-0.603	-0.416	-0.469	0.398
-0.23	-0.077	0.151	0.153	-0.191	0.037	-0.182	-0.522	-0.65	-0.477	-0.543	0.332
-0.262	-0.119	0.142	0.191	-0.203	0.012	-0.136	-0.491	-0.637	-0.482	-0.564	0.301
-0.27	-0.139	0.131	0.204	-0.201	-0.004	-0.115	-0.45	-0.596	-0.448	-0.541	0.306
-0.279	-0.139	0.139	0.208	-0.209	0.001	-0.104	-0.423	-0.562	-0.413	-0.51	0.32
-0.277	-0.128	0.148	0.202	-0.212	0.011	-0.094	-0.401	-0.533	-0.386	-0.483	0.334
-0.265	-0.114	0.15	0.19	-0.208	0.018	-0.077	-0.362	-0.492	-0.348	-0.449	0.356
-0.26	-0.114	0.145	0.187	-0.203	0.016	-0.067	-0.338	-0.466	-0.324	-0.427	0.365
-0.268	-0.116	0.152	0.192	-0.21	0.018	-0.064	-0.321	-0.447	-0.307	-0.413	0.367
-0.266	-0.107	0.158	0.186	-0.212	0.026	-0.057	-0.283	-0.408	-0.275	-0.388	0.38
-0.246	-0.089	0.157	0.168	-0.202	0.034	-0.061	-0.259	-0.379	-0.245	-0.364	0.389
-0.226	-0.062	0.163	0.144	-0.195	0.051	-0.068	-0.227	-0.343	-0.212	-0.333	0.408
-0.226	-0.046	0.179	0.136	-0.203	0.067	-0.073	-0.188	-0.302	-0.175	-0.298	0.427
-0.237	-0.046	0.19	0.142	-0.214	0.072	-0.075	-0.165	-0.274	-0.148	-0.279	0.429
-0.239	-0.044	0.195	0.141	-0.217	0.075	-0.069	-0.117	-0.23	-0.112	-0.251	0.439
-0.228	-0.04	0.188	0.134	-0.208	0.074	-0.062	-0.061	-0.179	-0.068	-0.215	0.456
-0.21	-0.04	0.17	0.125	-0.191	0.066	-0.059	-0.034	-0.149	-0.041	-0.193	0.467
-0.191	-0.026	0.164	0.108	-0.177	0.069	-0.061	-0.009	-0.123	-0.017	-0.172	0.482
-0.179	-0.009	0.171	0.094	-0.175	0.082	-0.064	0.011	-0.106	-0.001	-0.155	0.49
-0.167	0.004	0.171	0.081	-0.17	0.088	-0.064	0.025	-0.092	0.009	-0.144	0.493
-0.162	0.018	0.178	0.072	-0.171	0.099	-0.054	0.05	-0.069	0.031	-0.127	0.504
-0.16	0.028	0.186	0.066	-0.173	0.107	-0.055	0.064	-0.053	0.045	-0.116	0.511
-0.158	0.029	0.186	0.064	-0.172	0.108	-0.059	0.075	-0.04	0.058	-0.103	0.516
-0.159	0.036	0.195	0.061	-0.177	0.116	-0.052	0.098	-0.02	0.076	-0.088	0.525
-0.148	0.042	0.19	0.053	-0.17	0.117	-0.045	0.114	-0.002	0.095	-0.071	0.536
-0.147	0.042	0.189	0.052	-0.168	0.116	-0.043	0.125	0.011	0.107	-0.058	0.541
-0.146	0.049	0.195	0.049	-0.171	0.122	-0.05	0.129	0.017	0.112	-0.052	0.545
-0.146	0.05	0.196	0.048	-0.171	0.123	-0.052	0.131	0.021	0.118	-0.046	0.55
-0.147	0.05	0.197	0.049	-0.172	0.124	-0.052	0.138	0.031	0.128	-0.036	0.556
-0.149	0.051	0.199	0.05	-0.174	0.125	-0.051	0.135	0.028	0.127	-0.036	0.556
-0.151	0.053	0.203	0.049	-0.178	0.129	-0.049	0.135	0.028	0.126	-0.038	0.555
-0.143	0.061	0.204	0.041	-0.174	0.134	-0.054	0.135	0.032	0.131	-0.032	0.56
-0.143	0.061	0.204	0.042	-0.174	0.133	-0.053	0.137	0.033	0.131	-0.031	0.56
-0.145	0.053	0.198	0.046	-0.172	0.126	-0.05	0.142	0.037	0.135	-0.029	0.56
-0.144	0.054	0.198	0.045	-0.172	0.126	-0.051	0.142	0.037	0.137	-0.025	0.563
-0.138	0.059	0.196	0.04	-0.167	0.127	-0.051	0.146	0.042	0.141	-0.021	0.567
-0.134	0.058	0.191	0.038	-0.163	0.125	-0.049	0.151	0.047	0.147	-0.017	0.569
-0.148	0.052	0.2	0.048	-0.175	0.127	-0.052	0.15	0.046	0.144	-0.019	0.565
-0.151	0.051	0.202	0.051	-0.177	0.127	-0.054	0.15	0.046	0.144	-0.019	0.566
-0.141	0.057	0.199	0.043	-0.171	0.128	-0.049	0.157	0.053	0.15	-0.015	0.567
-0.145	0.055	0.2	0.045	-0.173	0.128	-0.051	0.154	0.05	0.149	-0.015	0.566
-0.152	0.057	0.207	0.048	-0.18	0.133	-0.05	0.151	0.048	0.147	-0.015	0.565
-0.155	0.057	0.211	0.049	-0.183	0.135	-0.048	0.149	0.049	0.146	-0.015	0.564
-0.157	0.051	0.208	0.053	-0.183	0.13	-0.055	0.147	0.045	0.143	-0.019	0.561
-0.154	0.053	0.206	0.051	-0.18	0.131	-0.05	0.159	0.054	0.15	-0.015	0.565
-0.154	0.051	0.204	0.051	-0.18	0.129	-0.044	0.162	0.058	0.154	-0.009	0.569
-0.149	0.056	0.204	0.047	-0.177	0.131	-0.045	0.158	0.056	0.153	-0.009	0.567
-0.14	0.062	0.202	0.038	-0.171	0.133	-0.05	0.162	0.059	0.157	-0.007	0.57
-0.144	0.06	0.204	0.042	-0.174	0.133	-0.052	0.158	0.057	0.153	-0.009	0.567
-0.143	0.061	0.204	0.041	-0.174	0.133	-0.051	0.158	0.056	0.154	-0.009	0.567
-0.138	0.069	0.206	0.035	-0.172	0.138	-0.052	0.159	0.059	0.158	-0.003	0.573
-0.145	0.071	0.216	0.037	-0.181	0.144	-0.05	0.162	0.061	0.161	-0.002	0.573
-0.15	0.065	0.214	0.043	-0.183	0.14	-0.054	0.163	0.06	0.158	-0.006	0.567
-0.138	0.067	0.204	0.035	-0.172	0.136	-0.051	0.162	0.06	0.157	-0.006	0.567
-0.134	0.07	0.203	0.032	-0.169	0.138	-0.051	0.16	0.059	0.157	-0.006	0.568
-0.126	0.069	0.194	0.028	-0.16	0.132	-0.064	0.15	0.05	0.148	-0.013	0.561
-0.117	0.072	0.189	0.022	-0.153	0.131	-0.063	0.154	0.053	0.151	-0.011	0.562
-0.131	0.074	0.204	0.029	-0.169	0.14	-0.056	0.158	0.059	0.155	-0.007	0.566
-0.134	0.078	0.211	0.028	-0.173	0.145	-0.053	0.16	0.058	0.158	-0.005	0.568
-0.135	0.08	0.214	0.028	-0.175	0.147	-0.059	0.159	0.059	0.158	-0.004	0.567
-0.133	0.085	0.217	0.024	-0.175	0.151	-0.065	0.159	0.06	0.159	-0.002	0.571
-0.128	0.089	0.216	0.019	-0.172	0.152	-0.062	0.165	0.065	0.164	0.002	0.576
-0.13	0.09	0.218	0.02	-0.174	0.155	-0.069	0.158	0.059	0.157	-0.004	0.571
-0.122	0.095	0.216	0.014	-0.17	0.155	-0.073	0.153	0.056	0.154	-0.005	0.57
-0.119	0.087	0.206	0.016	-0.163	0.147	-0.073	0.15	0.054	0.154	-0.004	0.572
-0.131	0.082	0.211	0.025	-0.172	0.147	-0.066	0.158	0.061	0.161	0.001	0.574
-0.124	0.086	0.21	0.019	-0.168	0.148	-0.069	0.164	0.065	0.164	0.004	0.578
-0.121	0.086	0.206	0.018	-0.164	0.146	-0.076	0.156	0.06	0.16	0.001	0.576
-0.137	0.085	0.221	0.025	-0.179	0.153	-0.069	0.158	0.061	0.16	0.002	0.575
-0.129	0.09	0.218	0.019	-0.174	0.155	-0.071	0.161	0.064	0.162	0.002	0.576
-0.115	0.092	0.206	0.011	-0.161	0.15	-0.075	0.16	0.066	0.165	0.005	0.58
-0.117	0.092	0.209	0.013	-0.164	0.151	-0.069	0.162	0.067	0.166	0.007	0.582
-0.122	0.088	0.21	0.017	-0.167	0.149	-0.066	0.166	0.07	0.169	0.007	0.583
-0.124	0.085	0.208	0.02	-0.167	0.146	-0.07	0.165	0.071	0.172	0.011	0.585
-0.129	0.087	0.215	0.021	-0.173	0.151	-0.068	0.163	0.068	0.169	0.009	0.582
-0.12	0.093	0.213	0.013	-0.167	0.153	-0.069	0.166	0.073	0.173	0.013	0.585
-0.113	0.093	0.205	0.01	-0.16	0.15	-0.07	0.17	0.077	0.178	0.019	0.589
-0.117	0.089	0.205	0.014	-0.162	0.148	-0.069	0.17	0.074	0.178	0.015	0.588
-0.118	0.09	0.207	0.014	-0.164	0.149	-0.068	0.168	0.074	0.176	0.013	0.587
-0.126	0.087	0.211	0.019	-0.169	0.149	-0.065	0.167	0.073	0.174	0.014	0.585
-0.125	0.086	0.21	0.019	-0.169	0.149	-0.067	0.166	0.072	0.173	0.012	0.584
-0.117	0.087	0.203	0.015	-0.161	0.146	-0.072	0.164	0.07	0.171	0.011	0.584
-0.124	0.087	0.211	0.019	-0.168	0.149	-0.075	0.158	0.064	0.165	0.004	0.579
-0.117	0.095	0.211	0.011	-0.165	0.153	-0.073	0.162	0.068	0.167	0.007	0.578
-0.102	0.098	0.199	0.003	-0.151	0.148	-0.07	0.171	0.076	0.176	0.015	0.585
-0.113	0.093	0.205	0.009	-0.16	0.15	-0.069	0.169	0.073	0.176	0.015	0.584
-0.119	0.089	0.208	0.015	-0.165	0.149	-0.071	0.165	0.071	0.175	0.014	0.584
-0.116	0.087	0.203	0.015	-0.16	0.145	-0.075	0.164	0.073	0.175	0.013	0.584
-0.111	0.09	0.2	0.01	-0.155	0.145	-0.074	0.17	0.077	0.179	0.016	0.585
-0.112	0.09	0.201	0.011	-0.157	0.146	-0.072	0.169	0.076	0.179	0.016	0.588
-0.115	0.093	0.208	0.011	-0.163	0.151	-0.074	0.163	0.072	0.175	0.013	0.585
-0.119	0.093	0.212	0.013	-0.166	0.153	-0.077	0.162	0.072	0.174	0.013	0.584
-0.124	0.088	0.212	0.018	-0.169	0.15	-0.077	0.16	0.071	0.174	0.015	0.585
-0.114	0.087	0.201	0.013	-0.158	0.144	-0.076	0.168	0.079	0.181	0.022	0.592
-0.106	0.091	0.197	0.008	-0.152	0.144	-0.075	0.168	0.082	0.183	0.026	0.597
-0.118	0.09	0.207	0.014	-0.164	0.149	-0.075	0.163	0.074	0.178	0.024	0.595
-0.11	0.093	0.203	0.008	-0.157	0.148	-0.075	0.167	0.079	0.183	0.026	0.597
-0.108	0.096	0.203	0.006	-0.156	0.15	-0.076	0.168	0.08	0.183	0.028	0.598
-0.112	0.096	0.207	0.009	-0.16	0.151	-0.075	0.167	0.081	0.183	0.029	0.601
-0.107	0.094	0.201	0.007	-0.155	0.148	-0.082	0.164	0.08	0.184	0.029	0.601
-0.114	0.089	0.202	0.012	-0.158	0.146	-0.086	0.163	0.077	0.182	0.031	0.603
-0.106	0.096	0.202	0.005	-0.154	0.149	-0.085	0.163	0.081	0.186	0.034	0.606
-0.11	0.1	0.209	0.005	-0.16	0.155	-0.086	0.163	0.077	0.182	0.029	0.602
-0.113	0.103	0.216	0.004	-0.165	0.16	-0.09	0.163	0.077	0.182	0.029	0.604
-0.102	0.107	0.209	-0.003	-0.157	0.159	-0.09	0.164	0.084	0.188	0.035	0.609
-0.103	0.107	0.21	-0.002	-0.157	0.16	-0.087	0.172	0.087	0.194	0.04	0.612
-0.102	0.104	0.206	-0.001	-0.155	0.156	-0.093	0.165	0.082	0.189	0.036	0.61
-0.1	0.1	0.199	0	-0.15	0.149	-0.092	0.164	0.083	0.188	0.037	0.611
-0.104	0.096	0.2	0.004	-0.152	0.148	-0.09	0.17	0.088	0.195	0.042	0.617
-0.1	0.096	0.195	0.002	-0.147	0.146	-0.094	0.165	0.086	0.195	0.043	0.616
-0.098	0.097	0.194	0.001	-0.146	0.146	-0.091	0.171	0.089	0.197	0.044	0.614
-0.105	0.089	0.194	0.009	-0.15	0.142	-0.088	0.171	0.088	0.195	0.041	0.611
-0.102	0.089	0.191	0.006	-0.146	0.141	-0.086	0.172	0.092	0.198	0.042	0.614
-0.096	0.091	0.186	0.003	-0.142	0.14	-0.086	0.175	0.096	0.202	0.048	0.619
-0.098	0.092	0.19	0.003	-0.144	0.141	-0.084	0.172	0.092	0.202	0.046	0.618
-0.102	0.096	0.196	0.003	-0.149	0.146	-0.09	0.168	0.088	0.199	0.043	0.615
-0.096	0.101	0.196	-0.002	-0.146	0.149	-0.095	0.169	0.088	0.196	0.041	0.614
-0.092	0.107	0.199	-0.007	-0.146	0.153	-0.094	0.168	0.088	0.198	0.041	0.614
-0.089	0.105	0.193	-0.008	-0.141	0.149	-0.101	0.164	0.087	0.198	0.042	0.616
-0.085	0.105	0.19	-0.01	-0.138	0.147	-0.096	0.167	0.088	0.2	0.042	0.618
-0.091	0.108	0.199	-0.009	-0.145	0.154	-0.096	0.167	0.087	0.197	0.041	0.616
-0.085	0.11	0.195	-0.013	-0.141	0.153	-0.102	0.166	0.085	0.199	0.043	0.616
-0.082	0.112	0.193	-0.015	-0.138	0.152	-0.104	0.165	0.086	0.2	0.043	0.618
-0.091	0.116	0.206	-0.013	-0.149	0.162	-0.111	0.157	0.08	0.192	0.038	0.614
-0.087	0.119	0.205	-0.016	-0.147	0.163	-0.109	0.159	0.083	0.196	0.04	0.614
-0.089	0.117	0.205	-0.014	-0.147	0.162	-0.103	0.16	0.086	0.199	0.045	0.619
-0.093	0.117	0.209	-0.011	-0.152	0.164	-0.105	0.161	0.086	0.199	0.047	0.621
-0.091	0.114	0.205	-0.011	-0.149	0.16	-0.108	0.167	0.091	0.202	0.05	0.622
-0.097	0.108	0.204	-0.005	-0.151	0.157	-0.112	0.164	0.089	0.201	0.051	0.624
-0.088	0.114	0.202	-0.013	-0.145	0.158	-0.107	0.163	0.089	0.203	0.051	0.625
-0.077	0.116	0.192	-0.019	-0.135	0.154	-0.105	0.166	0.091	0.203	0.053	0.626
-0.077	0.11	0.186	-0.017	-0.132	0.149	-0.113	0.163	0.09	0.204	0.051	0.627
-0.077	0.108	0.184	-0.015	-0.132	0.147	-0.117	0.159	0.09	0.203	0.051	0.627
-0.074	0.107	0.18	-0.017	-0.128	0.144	-0.112	0.16	0.091	0.206	0.057	0.631
-0.072	0.109	0.181	-0.018	-0.127	0.145	-0.107	0.165	0.094	0.21	0.06	0.635
-0.071	0.108	0.179	-0.018	-0.126	0.144	-0.114	0.167	0.097	0.213	0.065	0.64
-0.066	0.111	0.175	-0.023	-0.121	0.143	-0.114	0.165	0.098	0.215	0.067	0.642
-0.073	0.107	0.179	-0.017	-0.127	0.144	-0.109	0.165	0.096	0.212	0.067	0.64
-0.069	0.108	0.176	-0.019	-0.123	0.142	-0.116	0.168	0.1	0.217	0.072	0.645
-0.053	0.118	0.171	-0.033	-0.113	0.145	-0.117	0.17	0.102	0.222	0.075	0.649
-0.057	0.12	0.176	-0.032	-0.117	0.148	-0.122	0.164	0.097	0.218	0.073	0.647
-0.059	0.123	0.181	-0.033	-0.12	0.153	-0.124	0.166	0.099	0.222	0.076	0.651
-0.054	0.128	0.182	-0.037	-0.118	0.155	-0.126	0.166	0.099	0.222	0.077	0.651
-0.061	0.13	0.19	-0.034	-0.126	0.16	-0.132	0.158	0.092	0.214	0.071	0.646
-0.06	0.126	0.186	-0.033	-0.123	0.157	-0.131	0.164	0.097	0.219	0.075	0.648
-0.054	0.123	0.177	-0.035	-0.116	0.151	-0.131	0.165	0.101	0.223	0.079	0.651
-0.051	0.132	0.182	-0.04	-0.117	0.158	-0.136	0.162	0.098	0.222	0.078	0.651
-0.051	0.135	0.186	-0.042	-0.119	0.161	-0.136	0.165	0.101	0.224	0.081	0.652
-0.05	0.134	0.182	-0.042	-0.117	0.159	-0.142	0.164	0.103	0.227	0.084	0.657
-0.049	0.136	0.184	-0.044	-0.117	0.161	-0.144	0.159	0.099	0.226	0.083	0.656
-0.047	0.138	0.184	-0.045	-0.116	0.162	-0.141	0.164	0.104	0.231	0.088	0.66
-0.037	0.143	0.179	-0.053	-0.109	0.162	-0.15	0.166	0.108	0.234	0.092	0.666
-0.029	0.146	0.175	-0.058	-0.102	0.161	-0.155	0.161	0.106	0.234	0.092	0.666
-0.039	0.138	0.176	-0.05	-0.108	0.158	-0.155	0.161	0.105	0.233	0.093	0.665
-0.046	0.14	0.185	-0.046	-0.116	0.163	-0.156	0.161	0.106	0.234	0.097	0.669
-0.028	0.149	0.177	-0.061	-0.103	0.164	-0.157	0.165	0.112	0.24	0.103	0.677
-0.026	0.148	0.173	-0.06	-0.101	0.161	-0.154	0.165	0.112	0.24	0.105	0.679
-0.025	0.144	0.169	-0.059	-0.097	0.157	-0.155	0.166	0.116	0.245	0.111	0.683
-0.026	0.144	0.17	-0.059	-0.098	0.158	-0.159	0.164	0.115	0.243	0.11	0.682
-0.024	0.149	0.172	-0.062	-0.099	0.161	-0.159	0.16	0.111	0.241	0.11	0.682
-0.015	0.151	0.166	-0.068	-0.091	0.159	-0.165	0.16	0.111	0.243	0.112	0.685
-0.016	0.151	0.167	-0.068	-0.092	0.16	-0.165	0.163	0.116	0.248	0.117	0.69
-0.011	0.155	0.166	-0.072	-0.089	0.161	-0.17	0.163	0.118	0.253	0.122	0.696
-0.028	0.153	0.181	-0.062	-0.105	0.168	-0.171	0.154	0.11	0.244	0.115	0.692
-0.029	0.144	0.173	-0.058	-0.102	0.16	-0.172	0.155	0.113	0.246	0.117	0.695
-0.008	0.151	0.159	-0.071	-0.084	0.155	-0.18	0.158	0.118	0.254	0.126	0.703
-0.001	0.165	0.165	-0.083	-0.083	0.166	-0.177	0.161	0.123	0.259	0.13	0.707
-0.002	0.165	0.166	-0.082	-0.084	0.166	-0.175	0.165	0.126	0.263	0.136	0.712
-0.004	0.166	0.169	-0.081	-0.086	0.168	-0.177	0.165	0.128	0.265	0.138	0.716
-0.005	0.163	0.168	-0.079	-0.087	0.166	-0.183	0.164	0.127	0.265	0.139	0.715
0.002	0.162	0.159	-0.082	-0.08	0.161	-0.191	0.16	0.124	0.266	0.142	0.719
0.005	0.165	0.159	-0.085	-0.077	0.162	-0.192	0.16	0.127	0.268	0.143	0.722
0.004	0.166	0.162	-0.086	-0.079	0.165	-0.195	0.157	0.124	0.265	0.142	0.72
0.019	0.168	0.148	-0.093	-0.066	0.159	-0.196	0.156	0.126	0.269	0.149	0.727
0.025	0.173	0.147	-0.1	-0.061	0.161	-0.197	0.162	0.133	0.276	0.155	0.734
0.03	0.179	0.148	-0.104	-0.06	0.164	-0.209	0.157	0.129	0.275	0.157	0.738
0.03	0.178	0.147	-0.104	-0.059	0.163	-0.216	0.15	0.127	0.274	0.157	0.738
0.033	0.183	0.15	-0.108	-0.059	0.167	-0.218	0.154	0.131	0.279	0.161	0.741
0.04	0.185	0.144	-0.113	-0.052	0.165	-0.217	0.153	0.132	0.281	0.165	0.744
0.032	0.179	0.147	-0.106	-0.058	0.164	-0.208	0.152	0.13	0.279	0.162	0.743
0.037	0.186	0.148	-0.112	-0.056	0.168	-0.217	0.151	0.131	0.281	0.165	0.746
0.04	0.189	0.148	-0.115	-0.054	0.169	-0.221	0.151	0.134	0.284	0.169	0.75
0.043	0.191	0.146	-0.117	-0.052	0.169	-0.217	0.15	0.133	0.286	0.174	0.757
0.055	0.202	0.146	-0.128	-0.046	0.174	-0.224	0.153	0.137	0.289	0.179	0.761
0.053	0.205	0.151	-0.129	-0.05	0.178	-0.229	0.152	0.138	0.289	0.181	0.764
0.052	0.199	0.146	-0.126	-0.048	0.173	-0.23	0.15	0.137	0.29	0.184	0.765
0.059	0.202	0.142	-0.131	-0.042	0.173	-0.234	0.148	0.138	0.293	0.185	0.767
0.064	0.211	0.147	-0.138	-0.042	0.179	-0.234	0.148	0.139	0.293	0.189	0.772
0.062	0.213	0.15	-0.138	-0.044	0.182	-0.234	0.147	0.138	0.293	0.189	0.772
0.066	0.209	0.143	-0.138	-0.039	0.177	-0.238	0.147	0.139	0.296	0.191	0.776
0.064	0.205	0.141	-0.135	-0.04	0.173	-0.237	0.148	0.14	0.298	0.193	0.778
0.053	0.197	0.143	-0.125	-0.046	0.171	-0.233	0.145	0.139	0.296	0.192	0.779
0.056	0.197	0.14	-0.127	-0.043	0.169	-0.236	0.142	0.139	0.298	0.195	0.782
0.061	0.207	0.145	-0.135	-0.043	0.176	-0.241	0.141	0.138	0.301	0.199	0.785
0.064	0.208	0.144	-0.136	-0.041	0.176	-0.239	0.145	0.143	0.305	0.204	0.791
0.069	0.205	0.136	-0.137	-0.034	0.171	-0.244	0.147	0.146	0.308	0.209	0.797
0.074	0.209	0.135	-0.141	-0.03	0.172	-0.246	0.147	0.146	0.311	0.212	0.8
0.084	0.217	0.132	-0.15	-0.025	0.175	-0.249	0.143	0.146	0.311	0.213	0.802
0.078	0.217	0.139	-0.147	-0.03	0.178	-0.257	0.137	0.139	0.305	0.207	0.796
0.079	0.218	0.139	-0.148	-0.03	0.179	-0.262	0.13	0.134	0.299	0.203	0.792
0.092	0.223	0.13	-0.158	-0.019	0.176	-0.26	0.137	0.141	0.306	0.211	0.798
0.088	0.217	0.129	-0.152	-0.021	0.173	-0.253	0.143	0.147	0.311	0.216	0.806
0.079	0.206	0.126	-0.142	-0.024	0.167	-0.254	0.137	0.143	0.309	0.217	0.807
0.07	0.205	0.135	-0.138	-0.033	0.171	-0.257	0.139	0.142	0.309	0.215	0.805
0.068	0.205	0.137	-0.137	-0.035	0.172	-0.257	0.137	0.141	0.306	0.213	0.806
0.076	0.2	0.124	-0.138	-0.025	0.163	-0.258	0.138	0.144	0.31	0.219	0.808
0.087	0.211	0.123	-0.149	-0.018	0.168	-0.259	0.137	0.146	0.313	0.22	0.809
0.09	0.218	0.128	-0.154	-0.019	0.173	-0.259	0.136	0.145	0.314	0.222	0.812
0.086	0.222	0.136	-0.154	-0.025	0.179	-0.253	0.146	0.15	0.317	0.224	0.812
0.083	0.226	0.142	-0.154	-0.03	0.184	-0.26	0.14	0.144	0.309	0.217	0.807
0.089	0.229	0.14	-0.159	-0.025	0.184	-0.269	0.132	0.14	0.306	0.213	0.805
0.081	0.225	0.143	-0.153	-0.032	0.184	-0.265	0.13	0.137	0.303	0.21	0.803
0.075	0.216	0.141	-0.145	-0.033	0.178	-0.267	0.129	0.137	0.301	0.208	0.802
0.088	0.217	0.128	-0.152	-0.021	0.173	-0.269	0.129	0.136	0.302	0.208	0.802
0.086	0.223	0.136	-0.154	-0.025	0.18	-0.268	0.128	0.136	0.3	0.208	0.802
0.092	0.234	0.141	-0.164	-0.025	0.189	-0.268	0.13	0.137	0.303	0.212	0.807
0.098	0.237	0.14	-0.168	-0.021	0.189	-0.272	0.127	0.133	0.302	0.21	0.805
0.099	0.24	0.141	-0.169	-0.021	0.191	-0.27	0.126	0.135	0.302	0.212	0.806
0.099	0.238	0.14	-0.169	-0.021	0.19	-0.269	0.127	0.134	0.3	0.211	0.808
0.099	0.235	0.136	-0.168	-0.019	0.186	-0.275	0.127	0.134	0.301	0.21	0.808
0.102	0.239	0.137	-0.171	-0.018	0.189	-0.273	0.131	0.136	0.305	0.214	0.811
0.095	0.24	0.145	-0.168	-0.025	0.193	-0.272	0.129	0.133	0.3	0.211	0.807
0.097	0.24	0.143	-0.169	-0.024	0.193	-0.271	0.128	0.136	0.302	0.214	0.809
0.09	0.236	0.146	-0.164	-0.029	0.192	-0.275	0.125	0.133	0.299	0.212	0.809
0.078	0.232	0.153	-0.155	-0.038	0.193	-0.277	0.118	0.127	0.292	0.205	0.805
0.081	0.232	0.15	-0.157	-0.035	0.192	-0.266	0.123	0.132	0.296	0.209	0.806
0.078	0.228	0.15	-0.153	-0.036	0.19	-0.266	0.122	0.129	0.295	0.205	0.803
0.079	0.228	0.148	-0.153	-0.035	0.189	-0.268	0.121	0.126	0.292	0.204	0.8
0.087	0.234	0.146	-0.161	-0.029	0.191	-0.268	0.128	0.132	0.296	0.207	0.802
0.086	0.234	0.148	-0.16	-0.032	0.192	-0.27	0.126	0.131	0.295	0.205	0.8
0.08	0.236	0.155	-0.158	-0.038	0.197	-0.264	0.125	0.127	0.291	0.2	0.797
0.08	0.236	0.157	-0.158	-0.039	0.197	-0.26	0.127	0.129	0.292	0.2	0.796
0.071	0.226	0.154	-0.148	-0.043	0.191	-0.263	0.123	0.126	0.288	0.197	0.793
0.078	0.229	0.15	-0.153	-0.037	0.19	-0.262	0.128	0.128	0.291	0.198	0.793
0.082	0.234	0.152	-0.158	-0.036	0.194	-0.254	0.132	0.132	0.295	0.201	0.795
0.069	0.231	0.161	-0.149	-0.046	0.197	-0.254	0.13	0.128	0.291	0.196	0.793
0.066	0.229	0.163	-0.147	-0.049	0.196	-0.249	0.13	0.126	0.289	0.194	0.792
0.064	0.224	0.16	-0.143	-0.049	0.192	-0.247	0.129	0.125	0.286	0.191	0.789
0.071	0.223	0.151	-0.147	-0.04	0.187	-0.252	0.133	0.128	0.288	0.193	0.789
0.072	0.225	0.152	-0.148	-0.041	0.19	-0.246	0.136	0.13	0.29	0.194	0.79
0.07	0.227	0.156	-0.148	-0.043	0.192	-0.243	0.138	0.128	0.287	0.189	0.786
0.07	0.227	0.156	-0.148	-0.043	0.192	-0.239	0.137	0.129	0.285	0.189	0.786
0.06	0.222	0.161	-0.141	-0.051	0.192	-0.234	0.14	0.13	0.286	0.188	0.786
0.05	0.211	0.161	-0.131	-0.056	0.186	-0.234	0.137	0.124	0.28	0.179	0.776
0.044	0.207	0.162	-0.126	-0.059	0.185	-0.232	0.136	0.122	0.277	0.174	0.771
0.042	0.208	0.166	-0.126	-0.062	0.188	-0.223	0.141	0.125	0.277	0.175	0.771
0.038	0.206	0.168	-0.122	-0.065	0.187	-0.223	0.136	0.122	0.273	0.171	0.768
0.038	0.205	0.167	-0.122	-0.065	0.186	-0.215	0.143	0.124	0.276	0.172	0.767
0.034	0.201	0.167	-0.117	-0.067	0.184	-0.208	0.147	0.127	0.279	0.173	0.767
0.029	0.199	0.17	-0.114	-0.071	0.184	-0.205	0.148	0.126	0.277	0.169	0.763
0.022	0.198	0.176	-0.11	-0.077	0.188	-0.199	0.148	0.122	0.271	0.164	0.756
0.013	0.194	0.181	-0.103	-0.085	0.188	-0.198	0.144	0.118	0.265	0.157	0.75
0.013	0.191	0.177	-0.102	-0.082	0.184	-0.193	0.151	0.122	0.268	0.157	0.749
0.011	0.183	0.172	-0.097	-0.082	0.178	-0.183	0.157	0.124	0.269	0.155	0.745
-0.002	0.177	0.178	-0.087	-0.09	0.178	-0.18	0.16	0.122	0.267	0.149	0.739
0.002	0.179	0.177	-0.09	-0.088	0.179	-0.181	0.16	0.123	0.266	0.147	0.737
0.01	0.186	0.175	-0.098	-0.083	0.181	-0.175	0.158	0.121	0.263	0.143	0.736
-0.001	0.181	0.181	-0.09	-0.092	0.182	-0.168	0.162	0.121	0.262	0.142	0.732
-0.011	0.17	0.181	-0.08	-0.097	0.176	-0.169	0.164	0.12	0.259	0.136	0.725
-0.007	0.17	0.177	-0.081	-0.093	0.174	-0.166	0.165	0.12	0.257	0.133	0.721
-0.009	0.172	0.181	-0.082	-0.096	0.177	-0.154	0.167	0.12	0.254	0.13	0.717
-0.016	0.171	0.186	-0.077	-0.102	0.179	-0.154	0.168	0.119	0.254	0.127	0.713
-0.018	0.172	0.189	-0.077	-0.104	0.181	-0.151	0.166	0.118	0.252	0.123	0.708
-0.025	0.171	0.195	-0.072	-0.111	0.183	-0.148	0.16	0.111	0.241	0.112	0.7
-0.035	0.168	0.202	-0.067	-0.119	0.185	-0.144	0.166	0.112	0.242	0.111	0.696
-0.038	0.164	0.202	-0.063	-0.12	0.183	-0.14	0.17	0.113	0.24	0.106	0.69
-0.038	0.156	0.194	-0.059	-0.116	0.175	-0.139	0.17	0.112	0.236	0.102	0.688
-0.041	0.156	0.197	-0.058	-0.119	0.177	-0.132	0.17	0.108	0.234	0.1	0.684
-0.048	0.154	0.202	-0.053	-0.126	0.179	-0.129	0.171	0.11	0.233	0.098	0.681
-0.045	0.153	0.198	-0.053	-0.122	0.175	-0.126	0.174	0.112	0.235	0.097	0.682
-0.053	0.148	0.201	-0.048	-0.128	0.175	-0.127	0.17	0.107	0.231	0.091	0.676
-0.061	0.145	0.206	-0.042	-0.135	0.176	-0.12	0.174	0.107	0.227	0.088	0.672
-0.06	0.144	0.204	-0.042	-0.133	0.175	-0.116	0.174	0.106	0.225	0.086	0.669
-0.06	0.139	0.198	-0.039	-0.13	0.169	-0.11	0.179	0.107	0.226	0.084	0.666
-0.065	0.14	0.204	-0.038	-0.135	0.173	-0.106	0.177	0.104	0.223	0.081	0.662
-0.073	0.142	0.215	-0.035	-0.145	0.179	-0.106	0.172	0.101	0.217	0.076	0.658
-0.071	0.135	0.206	-0.032	-0.14	0.171	-0.104	0.173	0.099	0.215	0.071	0.653
-0.073	0.13	0.203	-0.028	-0.139	0.167	-0.1	0.177	0.101	0.217	0.07	0.652
-0.076	0.132	0.207	-0.028	-0.142	0.17	-0.099	0.179	0.103	0.217	0.073	0.652
-0.074	0.13	0.203	-0.028	-0.14	0.168	-0.101	0.172	0.095	0.207	0.064	0.645
-0.082	0.131	0.212	-0.024	-0.147	0.172	-0.098	0.174	0.093	0.205	0.058	0.64
-0.09	0.129	0.218	-0.019	-0.154	0.174	-0.101	0.17	0.089	0.203	0.054	0.637
-0.099	0.119	0.217	-0.011	-0.158	0.169	-0.1	0.166	0.085	0.198	0.051	0.635
-0.1	0.119	0.218	-0.01	-0.16	0.17	-0.095	0.171	0.087	0.201	0.051	0.634
-0.095	0.117	0.211	-0.011	-0.153	0.165	-0.097	0.17	0.088	0.201	0.05	0.631
-0.108	0.112	0.22	-0.002	-0.165	0.166	-0.093	0.168	0.083	0.193	0.041	0.623
-0.114	0.111	0.225	0.002	-0.17	0.168	-0.091	0.165	0.081	0.19	0.036	0.618
-0.102	0.112	0.212	-0.005	-0.158	0.163	-0.09	0.17	0.087	0.197	0.044	0.623
-0.102	0.112	0.213	-0.004	-0.158	0.163	-0.086	0.177	0.089	0.199	0.044	0.623
-0.113	0.11	0.222	0.002	-0.168	0.167	-0.08	0.177	0.088	0.196	0.042	0.62
-0.102	0.116	0.217	-0.006	-0.161	0.167	-0.08	0.176	0.09	0.197	0.043	0.621
-0.097	0.117	0.212	-0.009	-0.155	0.165	-0.077	0.178	0.09	0.198	0.042	0.618
-0.106	0.116	0.222	-0.004	-0.165	0.169	-0.071	0.18	0.09	0.195	0.037	0.613
-0.099	0.112	0.21	-0.006	-0.155	0.162	-0.072	0.184	0.092	0.2	0.042	0.617
-0.102	0.105	0.206	-0.002	-0.154	0.157	-0.077	0.18	0.088	0.196	0.039	0.615
-0.11	0.111	0.22	-0.001	-0.165	0.166	-0.077	0.173	0.081	0.188	0.032	0.61
-0.117	0.103	0.221	0.007	-0.17	0.163	-0.071	0.172	0.079	0.186	0.029	0.608
-0.117	0.1	0.217	0.009	-0.168	0.159	-0.077	0.176	0.081	0.189	0.029	0.607
-0.103	0.11	0.212	-0.004	-0.158	0.162	-0.081	0.177	0.084	0.192	0.033	0.612
-0.102	0.113	0.215	-0.005	-0.159	0.165	-0.075	0.176	0.082	0.19	0.032	0.61
-0.108	0.111	0.218	-0.002	-0.164	0.165	-0.078	0.175	0.08	0.188	0.029	0.606
-0.113	0.099	0.212	0.007	-0.163	0.156	-0.079	0.176	0.082	0.189	0.03	0.607
-0.116	0.098	0.212	0.009	-0.165	0.155	-0.073	0.173	0.077	0.185	0.027	0.605
-0.111	0.104	0.215	0.003	-0.164	0.161	-0.073	0.174	0.078	0.185	0.026	0.606
-0.117	0.097	0.214	0.011	-0.167	0.155	-0.072	0.173	0.076	0.183	0.025	0.604
-0.123	0.092	0.215	0.015	-0.17	0.154	-0.069	0.174	0.076	0.181	0.021	0.599
-0.12	0.094	0.214	0.013	-0.168	0.154	-0.071	0.177	0.081	0.182	0.023	0.6
-0.123	0.089	0.212	0.017	-0.168	0.151	-0.077	0.171	0.074	0.18	0.021	0.599
-0.114	0.095	0.208	0.009	-0.162	0.152	-0.076	0.174	0.077	0.182	0.023	0.601
-0.108	0.102	0.21	0.003	-0.16	0.157	-0.072	0.177	0.081	0.184	0.025	0.601
-0.118	0.097	0.215	0.011	-0.168	0.157	-0.072	0.176	0.077	0.181	0.02	0.598
-0.124	0.097	0.221	0.014	-0.173	0.159	-0.075	0.171	0.073	0.177	0.018	0.595
-0.121	0.102	0.223	0.009	-0.173	0.163	-0.068	0.176	0.077	0.179	0.019	0.595
-0.125	0.096	0.22	0.015	-0.172	0.158	-0.067	0.178	0.08	0.181	0.021	0.597
-0.126	0.096	0.221	0.015	-0.173	0.159	-0.069	0.171	0.076	0.18	0.021	0.599
-0.12	0.102	0.223	0.009	-0.172	0.163	-0.066	0.176	0.08	0.183	0.024	0.603
-0.127	0.099	0.225	0.014	-0.176	0.163	-0.062	0.177	0.079	0.182	0.021	0.599
-0.12	0.098	0.217	0.011	-0.169	0.158	-0.064	0.177	0.077	0.182	0.021	0.597
-0.116	0.093	0.208	0.011	-0.163	0.151	-0.067	0.174	0.076	0.18	0.019	0.595
-0.119	0.09	0.209	0.015	-0.165	0.15	-0.063	0.177	0.075	0.179	0.019	0.594
-0.116	0.095	0.21	0.011	-0.164	0.153	-0.059	0.176	0.075	0.179	0.021	0.596
-0.115	0.092	0.206	0.011	-0.161	0.149	-0.061	0.174	0.075	0.178	0.019	0.595
-0.119	0.088	0.207	0.015	-0.164	0.148	-0.062	0.173	0.073	0.177	0.019	0.595
-0.126	0.093	0.218	0.017	-0.172	0.156	-0.065	0.168	0.069	0.173	0.015	0.592
-0.121	0.094	0.215	0.013	-0.169	0.155	-0.066	0.172	0.073	0.177	0.018	0.595
-0.127	0.094	0.221	0.017	-0.174	0.158	-0.063	0.17	0.07	0.174	0.015	0.594
-0.134	0.092	0.226	0.021	-0.18	0.16	-0.065	0.172	0.07	0.171	0.011	0.591
-0.128	0.089	0.216	0.019	-0.172	0.153	-0.065	0.175	0.076	0.177	0.017	0.594
-0.123	0.09	0.213	0.017	-0.169	0.152	-0.064	0.175	0.075	0.177	0.017	0.595
-0.123	0.082	0.204	0.021	-0.165	0.144	-0.061	0.176	0.075	0.178	0.018	0.597
-0.119	0.08	0.199	0.019	-0.16	0.14	-0.062	0.176	0.076	0.181	0.02	0.6
-0.123	0.079	0.202	0.023	-0.163	0.141	-0.065	0.176	0.076	0.179	0.019	0.597
-0.14	0.073	0.212	0.033	-0.176	0.143	-0.061	0.17	0.07	0.172	0.01	0.591
-0.135	0.074	0.209	0.03	-0.172	0.142	-0.057	0.176	0.075	0.177	0.017	0.595
-0.133	0.073	0.205	0.029	-0.17	0.14	-0.052	0.182	0.081	0.185	0.024	0.601
-0.126	0.083	0.207	0.021	-0.167	0.145	-0.054	0.185	0.084	0.186	0.024	0.604
-0.108	0.088	0.195	0.01	-0.152	0.142	-0.059	0.184	0.085	0.188	0.026	0.604
-0.108	0.087	0.195	0.011	-0.152	0.142	-0.058	0.179	0.079	0.182	0.02	0.599
-0.11	0.088	0.198	0.011	-0.154	0.143	-0.057	0.182	0.08	0.182	0.021	0.598
-0.112	0.087	0.199	0.013	-0.156	0.143	-0.059	0.176	0.075	0.178	0.016	0.593
-0.117	0.086	0.202	0.015	-0.16	0.144	-0.056	0.175	0.074	0.175	0.013	0.591
-0.119	0.083	0.202	0.018	-0.161	0.142	-0.059	0.174	0.074	0.175	0.015	0.593
-0.12	0.081	0.202	0.02	-0.162	0.142	-0.059	0.175	0.076	0.178	0.017	0.595
-0.134	0.08	0.213	0.026	-0.173	0.147	-0.052	0.178	0.078	0.177	0.017	0.596
-0.133	0.081	0.213	0.026	-0.173	0.147	-0.055	0.174	0.074	0.176	0.015	0.593
-0.121	0.085	0.205	0.018	-0.164	0.145	-0.059	0.176	0.075	0.177	0.015	0.593
-0.139	0.086	0.224	0.026	-0.181	0.155	-0.055	0.172	0.07	0.171	0.009	0.588
-0.138	0.083	0.22	0.028	-0.179	0.152	-0.054	0.173	0.072	0.173	0.009	0.588
-0.127	0.088	0.214	0.019	-0.171	0.151	-0.059	0.172	0.07	0.171	0.009	0.588
-0.134	0.083	0.215	0.025	-0.175	0.149	-0.061	0.167	0.066	0.167	0.003	0.583
-0.128	0.083	0.209	0.022	-0.169	0.146	-0.061	0.172	0.07	0.172	0.007	0.585
-0.133	0.086	0.218	0.024	-0.176	0.152	-0.059	0.17	0.069	0.171	0.007	0.584
-0.141	0.077	0.218	0.032	-0.18	0.148	-0.057	0.174	0.07	0.172	0.007	0.583
-0.135	0.074	0.209	0.03	-0.172	0.142	-0.052	0.175	0.075	0.175	0.011	0.587
-0.129	0.077	0.206	0.026	-0.168	0.142	-0.055	0.173	0.074	0.176	0.014	0.59
-0.121	0.086	0.207	0.018	-0.165	0.147	-0.06	0.179	0.077	0.178	0.016	0.594
-0.124	0.085	0.208	0.019	-0.167	0.147	-0.064	0.171	0.07	0.174	0.011	0.59
-0.12	0.085	0.204	0.018	-0.163	0.144	-0.066	0.169	0.069	0.173	0.011	0.589
-0.125	0.083	0.207	0.021	-0.167	0.145	-0.06	0.176	0.072	0.175	0.011	0.589
-0.129	0.081	0.209	0.024	-0.17	0.145	-0.06	0.176	0.072	0.175	0.009	0.587
-0.13	0.083	0.212	0.024	-0.172	0.148	-0.06	0.178	0.073	0.174	0.008	0.584
-0.142	0.074	0.216	0.034	-0.179	0.146	-0.062	0.172	0.068	0.171	0.007	0.584
-0.135	0.073	0.207	0.03	-0.172	0.141	-0.058	0.173	0.069	0.175	0.009	0.588
-0.135	0.078	0.212	0.029	-0.173	0.145	-0.059	0.173	0.069	0.173	0.01	0.588
-0.127	0.084	0.209	0.022	-0.169	0.147	-0.066	0.172	0.071	0.175	0.013	0.591
-0.121	0.086	0.207	0.018	-0.165	0.147	-0.063	0.175	0.074	0.177	0.015	0.592
-0.129	0.091	0.22	0.018	-0.174	0.156	-0.068	0.172	0.07	0.172	0.011	0.586
-0.139	0.09	0.229	0.025	-0.184	0.16	-0.069	0.174	0.07	0.172	0.009	0.584
-0.137	0.093	0.23	0.021	-0.184	0.162	-0.063	0.174	0.074	0.176	0.013	0.59
-0.129	0.096	0.224	0.017	-0.176	0.161	-0.061	0.175	0.075	0.176	0.012	0.589
-0.134	0.088	0.221	0.023	-0.178	0.155	-0.063	0.173	0.072	0.173	0.009	0.586
-0.138	0.089	0.226	0.025	-0.182	0.158	-0.064	0.171	0.069	0.171	0.006	0.584
-0.138	0.091	0.229	0.024	-0.184	0.161	-0.066	0.172	0.07	0.17	0.004	0.582
-0.135	0.092	0.226	0.021	-0.18	0.16	-0.066	0.172	0.07	0.173	0.009	0.587
-0.14	0.091	0.23	0.025	-0.185	0.161	-0.064	0.171	0.07	0.173	0.009	0.587
-0.128	0.098	0.225	0.015	-0.176	0.162	-0.064	0.175	0.074	0.178	0.014	0.593
-0.126	0.095	0.22	0.015	-0.173	0.158	-0.06	0.177	0.075	0.179	0.014	0.594
-0.131	0.089	0.219	0.021	-0.175	0.154	-0.058	0.175	0.074	0.177	0.012	0.591
-0.12	0.091	0.211	0.015	-0.166	0.151	-0.059	0.181	0.08	0.184	0.019	0.597
-0.119	0.089	0.208	0.015	-0.164	0.149	-0.064	0.182	0.081	0.185	0.021	0.597
-0.123	0.082	0.204	0.021	-0.165	0.144	-0.062	0.178	0.079	0.184	0.019	0.595
-0.128	0.079	0.206	0.025	-0.168	0.142	-0.07	0.172	0.075	0.179	0.016	0.596
-0.124	0.085	0.209	0.02	-0.167	0.147	-0.069	0.173	0.077	0.181	0.018	0.596
-0.126	0.091	0.215	0.018	-0.171	0.153	-0.062	0.181	0.081	0.182	0.019	0.594
-0.132	0.087	0.218	0.022	-0.175	0.153	-0.068	0.173	0.075	0.176	0.015	0.591
-0.127	0.089	0.215	0.018	-0.171	0.152	-0.061	0.177	0.08	0.18	0.019	0.595
-0.13	0.094	0.223	0.018	-0.177	0.159	-0.067	0.178	0.079	0.176	0.015	0.591
-0.131	0.096	0.227	0.018	-0.179	0.162	-0.071	0.174	0.076	0.174	0.012	0.588
-0.124	0.104	0.228	0.009	-0.176	0.167	-0.065	0.176	0.08	0.178	0.017	0.592
-0.131	0.099	0.23	0.016	-0.18	0.165	-0.068	0.172	0.074	0.173	0.013	0.588
-0.132	0.097	0.228	0.017	-0.18	0.163	-0.068	0.173	0.077	0.176	0.017	0.59
-0.131	0.1	0.23	0.015	-0.18	0.165	-0.066	0.176	0.078	0.178	0.016	0.589
-0.135	0.093	0.228	0.021	-0.182	0.161	-0.067	0.171	0.071	0.17	0.008	0.584
-0.129	0.094	0.223	0.018	-0.176	0.159	-0.065	0.172	0.075	0.175	0.013	0.589
-0.122	0.096	0.217	0.013	-0.17	0.157	-0.065	0.176	0.081	0.181	0.018	0.591
-0.127	0.094	0.22	0.016	-0.173	0.158	-0.064	0.172	0.078	0.179	0.018	0.591
-0.129	0.093	0.221	0.018	-0.175	0.158	-0.068	0.174	0.079	0.18	0.017	0.59
-0.129	0.092	0.221	0.018	-0.175	0.157	-0.063	0.179	0.079	0.178	0.013	0.588
-0.134	0.088	0.222	0.023	-0.178	0.155	-0.062	0.174	0.076	0.175	0.011	0.588
-0.134	0.087	0.221	0.024	-0.178	0.155	-0.069	0.172	0.075	0.175	0.011	0.589
-0.129	0.096	0.224	0.017	-0.177	0.161	-0.066	0.173	0.074	0.175	0.011	0.588
-0.13	0.096	0.225	0.017	-0.178	0.161	-0.065	0.176	0.075	0.176	0.013	0.587
-0.134	0.09	0.224	0.021	-0.179	0.158	-0.066	0.171	0.072	0.173	0.01	0.587
-0.133	0.098	0.231	0.018	-0.182	0.165	-0.066	0.172	0.073	0.172	0.009	0.586
-0.136	0.099	0.235	0.018	-0.186	0.168	-0.064	0.174	0.076	0.173	0.013	0.589
-0.127	0.097	0.223	0.015	-0.175	0.16	-0.067	0.171	0.075	0.177	0.016	0.594
