0.29	-0.102	-0.393	-0.093	0.342	-0.247	0.407	0.017	0.127	0.348	-0.088	-0.124
0.304	-0.1	-0.404	-0.102	0.353	-0.252	0.403	0.012	0.122	0.344	-0.092	-0.128
0.32	-0.092	-0.413	-0.114	0.366	-0.253	0.402	0.011	0.12	0.342	-0.096	-0.131
0.334	-0.088	-0.423	-0.122	0.378	-0.256	0.397	0.008	0.118	0.34	-0.099	-0.134
0.326	-0.09	-0.416	-0.117	0.37	-0.254	0.402	0.012	0.121	0.342	-0.099	-0.134
0.325	-0.09	-0.416	-0.117	0.37	-0.253	0.402	0.011	0.121	0.341	-0.101	-0.135
0.331	-0.089	-0.42	-0.12	0.375	-0.255	0.398	0.009	0.121	0.342	-0.101	-0.135
0.321	-0.085	-0.406	-0.117	0.363	-0.245	0.396	0.008	0.119	0.339	-0.102	-0.135
0.305	-0.08	-0.386	-0.113	0.345	-0.233	0.399	0.009	0.122	0.34	-0.101	-0.132
0.292	-0.083	-0.376	-0.104	0.334	-0.229	0.402	0.013	0.126	0.343	-0.098	-0.13
0.29	-0.084	-0.374	-0.103	0.333	-0.229	0.401	0.012	0.127	0.344	-0.095	-0.128
0.31	-0.067	-0.378	-0.121	0.344	-0.222	0.405	0.015	0.131	0.348	-0.09	-0.122
0.307	-0.064	-0.372	-0.121	0.34	-0.218	0.404	0.017	0.134	0.35	-0.087	-0.121
0.298	-0.067	-0.365	-0.116	0.331	-0.215	0.391	0.01	0.128	0.35	-0.089	-0.123
0.31	-0.064	-0.375	-0.122	0.343	-0.22	0.376	0.001	0.121	0.343	-0.097	-0.128
0.313	-0.069	-0.382	-0.121	0.347	-0.225	0.366	-0.006	0.116	0.338	-0.102	-0.132
0.319	-0.07	-0.389	-0.124	0.353	-0.229	0.35	-0.011	0.114	0.338	-0.102	-0.13
0.319	-0.082	-0.402	-0.118	0.36	-0.242	0.337	-0.013	0.112	0.339	-0.1	-0.127
0.312	-0.086	-0.4	-0.113	0.355	-0.243	0.338	-0.017	0.111	0.336	-0.103	-0.13
0.319	-0.085	-0.405	-0.117	0.361	-0.244	0.342	-0.018	0.108	0.335	-0.105	-0.133
0.317	-0.089	-0.406	-0.114	0.361	-0.247	0.347	-0.018	0.106	0.335	-0.105	-0.131
0.309	-0.086	-0.396	-0.112	0.352	-0.24	0.357	-0.013	0.111	0.337	-0.101	-0.123
0.315	-0.087	-0.402	-0.114	0.358	-0.244	0.357	-0.009	0.112	0.34	-0.099	-0.12
0.318	-0.091	-0.409	-0.113	0.363	-0.251	0.348	-0.014	0.111	0.339	-0.098	-0.121
0.322	-0.091	-0.413	-0.115	0.367	-0.252	0.342	-0.018	0.111	0.34	-0.096	-0.121
0.324	-0.092	-0.416	-0.116	0.369	-0.254	0.334	-0.017	0.111	0.342	-0.093	-0.12
0.324	-0.09	-0.414	-0.117	0.369	-0.252	0.333	-0.018	0.111	0.342	-0.092	-0.12
0.336	-0.081	-0.417	-0.127	0.376	-0.248	0.333	-0.021	0.111	0.342	-0.093	-0.122
0.339	-0.074	-0.414	-0.132	0.377	-0.244	0.33	-0.021	0.112	0.343	-0.092	-0.123
0.334	-0.075	-0.409	-0.129	0.371	-0.242	0.332	-0.022	0.114	0.345	-0.089	-0.121
0.333	-0.07	-0.404	-0.13	0.368	-0.237	0.331	-0.021	0.118	0.35	-0.084	-0.117
0.333	-0.07	-0.404	-0.131	0.368	-0.237	0.331	-0.02	0.118	0.352	-0.081	-0.113
0.339	-0.081	-0.42	-0.128	0.379	-0.251	0.33	-0.021	0.116	0.35	-0.083	-0.115
0.349	-0.086	-0.435	-0.131	0.392	-0.261	0.331	-0.018	0.117	0.347	-0.083	-0.117
0.347	-0.093	-0.441	-0.126	0.394	-0.268	0.334	-0.019	0.114	0.343	-0.085	-0.117
0.329	-0.105	-0.434	-0.112	0.382	-0.27	0.337	-0.018	0.113	0.343	-0.084	-0.115
0.335	-0.093	-0.428	-0.12	0.381	-0.261	0.346	-0.007	0.122	0.352	-0.074	-0.105
0.343	-0.08	-0.423	-0.131	0.383	-0.252	0.353	-0.005	0.126	0.356	-0.07	-0.1
0.339	-0.086	-0.426	-0.126	0.382	-0.256	0.342	-0.017	0.116	0.347	-0.079	-0.11
0.35	-0.08	-0.43	-0.135	0.391	-0.255	0.338	-0.024	0.106	0.339	-0.086	-0.114
0.35	-0.073	-0.424	-0.138	0.387	-0.248	0.346	-0.018	0.11	0.339	-0.087	-0.114
0.346	-0.084	-0.429	-0.131	0.388	-0.257	0.346	-0.014	0.113	0.337	-0.088	-0.115
0.346	-0.089	-0.436	-0.128	0.391	-0.263	0.353	-0.006	0.118	0.34	-0.085	-0.112
0.338	-0.091	-0.429	-0.122	0.384	-0.261	0.366	0.012	0.132	0.351	-0.076	-0.104
0.358	-0.088	-0.447	-0.134	0.402	-0.268	0.367	0.014	0.133	0.35	-0.076	-0.103
0.376	-0.092	-0.469	-0.141	0.422	-0.281	0.364	0.011	0.13	0.346	-0.081	-0.107
0.357	-0.102	-0.459	-0.128	0.408	-0.28	0.366	0.013	0.129	0.347	-0.083	-0.111
0.361	-0.105	-0.467	-0.128	0.414	-0.286	0.36	0.009	0.123	0.343	-0.087	-0.114
0.377	-0.105	-0.482	-0.135	0.429	-0.293	0.351	0.003	0.118	0.34	-0.088	-0.114
0.371	-0.101	-0.472	-0.135	0.421	-0.286	0.347	-0.003	0.117	0.34	-0.088	-0.112
0.353	-0.103	-0.458	-0.124	0.406	-0.281	0.351	-0.004	0.117	0.343	-0.084	-0.108
0.341	-0.109	-0.45	-0.115	0.395	-0.28	0.351	-0.008	0.114	0.342	-0.084	-0.107
0.346	-0.113	-0.46	-0.116	0.403	-0.286	0.338	-0.022	0.102	0.331	-0.09	-0.114
0.354	-0.117	-0.471	-0.118	0.412	-0.294	0.329	-0.032	0.094	0.323	-0.096	-0.118
0.37	-0.109	-0.48	-0.13	0.425	-0.294	0.327	-0.035	0.091	0.319	-0.101	-0.117
0.353	-0.111	-0.465	-0.12	0.408	-0.288	0.325	-0.035	0.089	0.319	-0.101	-0.115
0.337	-0.126	-0.463	-0.105	0.399	-0.294	0.321	-0.038	0.086	0.316	-0.102	-0.116
0.335	-0.14	-0.475	-0.098	0.405	-0.307	0.321	-0.04	0.083	0.312	-0.105	-0.113
0.323	-0.14	-0.463	-0.091	0.393	-0.301	0.333	-0.029	0.091	0.32	-0.097	-0.104
0.331	-0.14	-0.471	-0.095	0.401	-0.306	0.337	-0.024	0.095	0.32	-0.093	-0.102
0.321	-0.147	-0.469	-0.086	0.395	-0.308	0.338	-0.025	0.091	0.317	-0.097	-0.105
0.308	-0.15	-0.459	-0.079	0.383	-0.305	0.331	-0.033	0.086	0.312	-0.102	-0.113
0.318	-0.15	-0.469	-0.084	0.394	-0.31	0.326	-0.036	0.084	0.31	-0.102	-0.114
0.339	-0.133	-0.472	-0.103	0.406	-0.303	0.336	-0.025	0.091	0.319	-0.095	-0.106
0.333	-0.139	-0.472	-0.097	0.403	-0.305	0.336	-0.029	0.088	0.314	-0.099	-0.111
0.33	-0.146	-0.476	-0.091	0.403	-0.311	0.335	-0.036	0.084	0.309	-0.102	-0.114
0.328	-0.139	-0.467	-0.094	0.397	-0.303	0.339	-0.033	0.086	0.309	-0.104	-0.115
0.316	-0.152	-0.469	-0.082	0.392	-0.31	0.34	-0.033	0.084	0.304	-0.111	-0.123
0.33	-0.157	-0.488	-0.086	0.409	-0.323	0.338	-0.035	0.079	0.3	-0.116	-0.128
0.318	-0.166	-0.484	-0.075	0.401	-0.326	0.343	-0.034	0.082	0.302	-0.116	-0.13
0.312	-0.171	-0.484	-0.07	0.398	-0.328	0.345	-0.032	0.081	0.302	-0.116	-0.13
0.314	-0.168	-0.482	-0.072	0.398	-0.326	0.341	-0.038	0.074	0.299	-0.117	-0.129
0.302	-0.166	-0.469	-0.068	0.386	-0.318	0.343	-0.04	0.074	0.3	-0.118	-0.131
0.307	-0.164	-0.472	-0.071	0.39	-0.318	0.343	-0.041	0.074	0.303	-0.118	-0.131
0.304	-0.167	-0.473	-0.068	0.389	-0.321	0.347	-0.035	0.076	0.303	-0.12	-0.133
0.289	-0.176	-0.467	-0.056	0.378	-0.322	0.355	-0.029	0.08	0.303	-0.12	-0.139
0.28	-0.189	-0.469	-0.045	0.374	-0.329	0.354	-0.035	0.077	0.301	-0.122	-0.144
0.284	-0.188	-0.473	-0.048	0.378	-0.331	0.354	-0.035	0.077	0.302	-0.122	-0.143
0.292	-0.19	-0.483	-0.051	0.388	-0.337	0.355	-0.036	0.076	0.3	-0.121	-0.142
0.29	-0.203	-0.495	-0.043	0.393	-0.349	0.352	-0.041	0.07	0.291	-0.129	-0.148
0.288	-0.206	-0.495	-0.041	0.392	-0.35	0.35	-0.042	0.062	0.282	-0.136	-0.154
0.293	-0.204	-0.499	-0.043	0.396	-0.351	0.354	-0.039	0.059	0.279	-0.137	-0.154
0.271	-0.216	-0.488	-0.027	0.38	-0.352	0.362	-0.03	0.065	0.283	-0.134	-0.152
0.26	-0.221	-0.481	-0.019	0.37	-0.35	0.365	-0.027	0.066	0.286	-0.133	-0.151
0.265	-0.223	-0.488	-0.021	0.377	-0.355	0.359	-0.03	0.065	0.28	-0.137	-0.155
0.266	-0.223	-0.489	-0.021	0.378	-0.356	0.36	-0.029	0.066	0.28	-0.135	-0.154
0.269	-0.221	-0.49	-0.024	0.38	-0.355	0.36	-0.026	0.068	0.279	-0.134	-0.153
0.26	-0.234	-0.494	-0.013	0.377	-0.363	0.354	-0.034	0.062	0.272	-0.139	-0.16
0.267	-0.233	-0.5	-0.017	0.383	-0.366	0.353	-0.042	0.057	0.269	-0.141	-0.16
0.283	-0.217	-0.502	-0.033	0.393	-0.359	0.355	-0.041	0.059	0.271	-0.14	-0.158
0.286	-0.21	-0.498	-0.037	0.392	-0.354	0.361	-0.034	0.066	0.277	-0.136	-0.152
0.289	-0.212	-0.502	-0.038	0.396	-0.357	0.364	-0.033	0.067	0.278	-0.136	-0.151
0.306	-0.209	-0.516	-0.048	0.411	-0.362	0.361	-0.04	0.06	0.273	-0.143	-0.157
0.297	-0.208	-0.507	-0.044	0.402	-0.357	0.365	-0.037	0.064	0.276	-0.141	-0.153
0.274	-0.217	-0.492	-0.028	0.383	-0.354	0.369	-0.034	0.064	0.277	-0.14	-0.151
0.285	-0.216	-0.502	-0.034	0.394	-0.358	0.37	-0.033	0.064	0.274	-0.14	-0.154
0.296	-0.214	-0.512	-0.041	0.405	-0.363	0.37	-0.034	0.064	0.274	-0.141	-0.154
0.291	-0.213	-0.506	-0.038	0.399	-0.359	0.374	-0.029	0.067	0.279	-0.138	-0.152
0.288	-0.207	-0.496	-0.04	0.392	-0.351	0.381	-0.022	0.073	0.286	-0.135	-0.148
0.289	-0.208	-0.498	-0.04	0.394	-0.353	0.38	-0.025	0.071	0.284	-0.137	-0.153
0.297	-0.208	-0.507	-0.043	0.402	-0.357	0.374	-0.029	0.068	0.281	-0.14	-0.159
0.308	-0.201	-0.51	-0.054	0.409	-0.355	0.372	-0.028	0.069	0.281	-0.14	-0.155
0.295	-0.21	-0.506	-0.042	0.401	-0.358	0.369	-0.028	0.068	0.28	-0.141	-0.158
0.283	-0.223	-0.506	-0.03	0.395	-0.364	0.368	-0.032	0.066	0.277	-0.146	-0.162
0.29	-0.217	-0.509	-0.036	0.4	-0.363	0.363	-0.035	0.061	0.273	-0.15	-0.166
0.284	-0.216	-0.501	-0.034	0.393	-0.359	0.362	-0.035	0.062	0.273	-0.149	-0.166
0.269	-0.221	-0.49	-0.024	0.379	-0.355	0.366	-0.032	0.065	0.275	-0.147	-0.163
0.264	-0.224	-0.488	-0.019	0.376	-0.355	0.369	-0.032	0.066	0.278	-0.145	-0.162
0.282	-0.213	-0.496	-0.034	0.389	-0.354	0.371	-0.029	0.07	0.28	-0.143	-0.158
0.282	-0.215	-0.498	-0.033	0.39	-0.356	0.37	-0.027	0.07	0.281	-0.143	-0.156
0.274	-0.216	-0.491	-0.028	0.383	-0.354	0.379	-0.021	0.075	0.287	-0.139	-0.152
0.28	-0.209	-0.489	-0.035	0.384	-0.349	0.381	-0.018	0.079	0.29	-0.137	-0.151
0.274	-0.213	-0.487	-0.03	0.381	-0.35	0.381	-0.018	0.079	0.29	-0.14	-0.154
0.27	-0.214	-0.484	-0.028	0.377	-0.349	0.381	-0.019	0.077	0.29	-0.14	-0.155
0.27	-0.215	-0.485	-0.027	0.378	-0.35	0.379	-0.018	0.078	0.291	-0.137	-0.154
0.273	-0.215	-0.49	-0.029	0.382	-0.352	0.38	-0.016	0.081	0.292	-0.135	-0.153
0.275	-0.216	-0.492	-0.029	0.384	-0.354	0.382	-0.017	0.077	0.289	-0.14	-0.157
0.278	-0.216	-0.495	-0.03	0.387	-0.355	0.384	-0.018	0.076	0.284	-0.143	-0.163
0.274	-0.217	-0.492	-0.028	0.383	-0.355	0.386	-0.018	0.076	0.283	-0.142	-0.163
0.27	-0.217	-0.488	-0.026	0.379	-0.352	0.386	-0.018	0.075	0.282	-0.143	-0.161
0.273	-0.21	-0.484	-0.03	0.378	-0.347	0.387	-0.018	0.077	0.283	-0.142	-0.16
0.278	-0.207	-0.486	-0.034	0.382	-0.346	0.389	-0.013	0.082	0.287	-0.138	-0.157
0.278	-0.211	-0.49	-0.033	0.384	-0.35	0.385	-0.018	0.078	0.284	-0.14	-0.158
0.264	-0.216	-0.481	-0.024	0.372	-0.348	0.381	-0.021	0.075	0.283	-0.141	-0.157
0.252	-0.223	-0.475	-0.015	0.363	-0.348	0.379	-0.019	0.078	0.286	-0.139	-0.157
0.243	-0.233	-0.477	-0.005	0.36	-0.354	0.37	-0.022	0.077	0.284	-0.141	-0.16
0.256	-0.231	-0.487	-0.012	0.371	-0.358	0.366	-0.021	0.078	0.286	-0.139	-0.157
0.268	-0.217	-0.485	-0.025	0.377	-0.351	0.368	-0.019	0.079	0.285	-0.139	-0.157
0.271	-0.209	-0.48	-0.03	0.375	-0.345	0.37	-0.019	0.08	0.284	-0.141	-0.159
0.275	-0.205	-0.481	-0.035	0.378	-0.344	0.374	-0.018	0.084	0.286	-0.139	-0.159
0.272	-0.205	-0.478	-0.033	0.374	-0.342	0.377	-0.018	0.085	0.288	-0.14	-0.16
0.275	-0.21	-0.486	-0.032	0.38	-0.348	0.378	-0.018	0.085	0.288	-0.141	-0.161
0.271	-0.219	-0.491	-0.025	0.381	-0.355	0.376	-0.018	0.085	0.284	-0.145	-0.164
0.276	-0.224	-0.5	-0.025	0.388	-0.362	0.379	-0.013	0.085	0.281	-0.15	-0.168
0.287	-0.227	-0.515	-0.03	0.401	-0.37	0.385	-0.006	0.083	0.276	-0.155	-0.17
0.277	-0.238	-0.516	-0.018	0.396	-0.377	0.399	0.013	0.093	0.276	-0.154	-0.169
0.271	-0.245	-0.517	-0.012	0.394	-0.382	0.416	0.041	0.108	0.28	-0.155	-0.172
0.273	-0.253	-0.527	-0.009	0.4	-0.39	0.439	0.073	0.125	0.28	-0.159	-0.175
0.269	-0.26	-0.529	-0.004	0.399	-0.394	0.466	0.111	0.148	0.282	-0.163	-0.178
0.26	-0.272	-0.532	0.007	0.396	-0.402	0.49	0.15	0.172	0.282	-0.171	-0.188
0.27	-0.279	-0.549	0.005	0.409	-0.414	0.517	0.19	0.201	0.289	-0.172	-0.192
0.285	-0.267	-0.553	-0.009	0.419	-0.41	0.541	0.223	0.229	0.298	-0.173	-0.198
0.275	-0.273	-0.547	-0.001	0.411	-0.41	0.557	0.249	0.251	0.303	-0.179	-0.208
0.271	-0.265	-0.535	-0.003	0.403	-0.4	0.571	0.271	0.275	0.315	-0.176	-0.209
0.245	-0.25	-0.496	0.003	0.37	-0.373	0.59	0.289	0.304	0.335	-0.171	-0.21
0.226	-0.23	-0.456	0.003	0.341	-0.343	0.599	0.279	0.31	0.343	-0.176	-0.221
0.225	-0.203	-0.429	-0.01	0.327	-0.317	0.593	0.261	0.311	0.349	-0.18	-0.23
0.213	-0.197	-0.41	-0.007	0.311	-0.304	0.59	0.26	0.325	0.362	-0.178	-0.23
0.22	-0.185	-0.406	-0.017	0.312	-0.296	0.594	0.273	0.352	0.386	-0.168	-0.227
0.229	-0.161	-0.391	-0.034	0.31	-0.277	0.606	0.302	0.395	0.423	-0.144	-0.215
0.235	-0.12	-0.356	-0.058	0.295	-0.238	0.619	0.325	0.44	0.467	-0.119	-0.204
0.249	-0.079	-0.329	-0.085	0.288	-0.203	0.621	0.351	0.495	0.522	-0.086	-0.186
0.272	-0.045	-0.318	-0.113	0.294	-0.181	0.618	0.38	0.547	0.581	-0.045	-0.159
0.296	-0.009	-0.306	-0.142	0.301	-0.158	0.608	0.41	0.62	0.66	0.018	-0.121
0.307	0.022	-0.285	-0.164	0.296	-0.132	0.605	0.458	0.703	0.75	0.094	-0.073
0.319	0.041	-0.278	-0.179	0.298	-0.118	0.615	0.531	0.809	0.85	0.171	-0.025
0.355	0.084	-0.272	-0.218	0.313	-0.095	0.609	0.591	0.93	0.972	0.265	0.035
0.399	0.143	-0.257	-0.271	0.328	-0.057	0.616	0.663	1.045	1.079	0.352	0.096
0.427	0.18	-0.247	-0.303	0.337	-0.034	0.635	0.747	1.167	1.181	0.427	0.143
0.456	0.227	-0.23	-0.341	0.343	-0.001	0.636	0.778	1.249	1.276	0.502	0.186
0.5	0.296	-0.205	-0.398	0.352	0.045	0.615	0.778	1.313	1.375	0.591	0.246
0.52	0.353	-0.168	-0.436	0.344	0.093	0.578	0.731	1.337	1.463	0.679	0.307
0.544	0.403	-0.143	-0.472	0.344	0.13	0.561	0.68	1.351	1.542	0.759	0.362
0.567	0.436	-0.131	-0.5	0.348	0.152	0.552	0.656	1.379	1.612	0.826	0.41
0.573	0.469	-0.105	-0.52	0.339	0.181	0.525	0.615	1.387	1.671	0.887	0.454
0.596	0.513	-0.083	-0.554	0.339	0.215	0.474	0.552	1.393	1.741	0.957	0.499
0.621	0.54	-0.082	-0.581	0.351	0.229	0.405	0.464	1.375	1.792	1.013	0.539
0.641	0.566	-0.076	-0.603	0.358	0.244	0.33	0.351	1.329	1.824	1.053	0.566
0.628	0.595	-0.035	-0.611	0.332	0.28	0.262	0.223	1.278	1.847	1.08	0.584
0.614	0.628	0.013	-0.621	0.3	0.321	0.186	0.097	1.238	1.899	1.137	0.626
0.621	0.655	0.033	-0.637	0.294	0.344	0.1	-0.021	1.194	1.96	1.21	0.682
0.633	0.685	0.051	-0.658	0.291	0.368	0.002	-0.172	1.128	1.99	1.246	0.704
0.623	0.736	0.112	-0.679	0.256	0.424	-0.13	-0.384	1.032	2.01	1.266	0.715
0.58	0.778	0.198	-0.678	0.191	0.488	-0.272	-0.635	0.909	2.025	1.292	0.734
0.535	0.829	0.293	-0.681	0.121	0.561	-0.4	-0.896	0.786	2.039	1.305	0.733
0.508	0.894	0.385	-0.701	0.062	0.639	-0.488	-1.115	0.678	2.045	1.306	0.722
0.478	0.876	0.397	-0.677	0.041	0.636	-0.501	-1.221	0.619	2.029	1.286	0.711
0.453	0.774	0.322	-0.613	0.066	0.548	-0.483	-1.236	0.601	1.986	1.25	0.697
0.445	0.712	0.267	-0.578	0.089	0.489	-0.493	-1.264	0.555	1.901	1.192	0.672
0.437	0.661	0.223	-0.548	0.107	0.443	-0.527	-1.319	0.454	1.756	1.103	0.636
0.426	0.587	0.16	-0.506	0.134	0.373	-0.539	-1.368	0.319	1.573	0.988	0.585
0.41	0.46	0.049	-0.434	0.181	0.254	-0.483	-1.352	0.234	1.391	0.851	0.513
0.38	0.326	-0.054	-0.352	0.217	0.136	-0.41	-1.306	0.163	1.206	0.708	0.439
0.333	0.244	-0.088	-0.287	0.21	0.078	-0.367	-1.318	0.005	0.973	0.543	0.354
0.29	0.15	-0.141	-0.22	0.215	0.004	-0.323	-1.325	-0.165	0.726	0.367	0.261
0.252	0.079	-0.174	-0.164	0.212	-0.048	-0.292	-1.33	-0.309	0.51	0.208	0.173
0.21	0.024	-0.188	-0.117	0.199	-0.082	-0.275	-1.387	-0.537	0.254	0.051	0.089
0.174	-0.057	-0.232	-0.059	0.203	-0.144	-0.244	-1.456	-0.811	-0.011	-0.089	0.018
0.145	-0.125	-0.271	-0.01	0.208	-0.198	-0.221	-1.492	-0.989	-0.191	-0.2	-0.043
0.124	-0.198	-0.323	0.037	0.223	-0.261	-0.198	-1.486	-1.079	-0.299	-0.287	-0.101
0.112	-0.276	-0.388	0.083	0.249	-0.332	-0.171	-1.451	-1.105	-0.346	-0.341	-0.138
0.105	-0.316	-0.421	0.106	0.263	-0.368	-0.154	-1.409	-1.074	-0.35	-0.371	-0.163
0.102	-0.341	-0.445	0.119	0.274	-0.393	-0.146	-1.364	-1.03	-0.34	-0.388	-0.182
0.092	-0.36	-0.454	0.135	0.273	-0.407	-0.143	-1.311	-0.983	-0.324	-0.395	-0.194
0.098	-0.365	-0.464	0.134	0.281	-0.414	-0.125	-1.231	-0.911	-0.289	-0.387	-0.195
0.12	-0.369	-0.49	0.124	0.305	-0.429	-0.085	-1.117	-0.801	-0.221	-0.355	-0.185
0.137	-0.36	-0.498	0.112	0.317	-0.428	-0.026	-0.982	-0.663	-0.131	-0.309	-0.167
0.165	-0.344	-0.51	0.09	0.337	-0.427	0.025	-0.845	-0.531	-0.044	-0.264	-0.147
0.199	-0.329	-0.528	0.066	0.363	-0.428	0.075	-0.712	-0.405	0.033	-0.222	-0.132
0.225	-0.303	-0.529	0.04	0.377	-0.416	0.14	-0.588	-0.287	0.109	-0.178	-0.111
0.226	-0.285	-0.511	0.03	0.368	-0.398	0.195	-0.493	-0.197	0.17	-0.148	-0.106
0.231	-0.276	-0.506	0.023	0.368	-0.391	0.237	-0.419	-0.128	0.208	-0.14	-0.114
0.24	-0.262	-0.502	0.011	0.371	-0.382	0.272	-0.362	-0.076	0.237	-0.134	-0.122
0.225	-0.255	-0.48	0.015	0.352	-0.367	0.307	-0.312	-0.029	0.266	-0.126	-0.13
0.221	-0.246	-0.468	0.013	0.344	-0.357	0.334	-0.267	0.011	0.29	-0.117	-0.131
0.234	-0.23	-0.465	-0.002	0.349	-0.347	0.354	-0.226	0.043	0.307	-0.108	-0.129
0.251	-0.224	-0.476	-0.013	0.363	-0.35	0.368	-0.191	0.067	0.317	-0.105	-0.128
0.263	-0.214	-0.478	-0.024	0.37	-0.346	0.367	-0.162	0.085	0.327	-0.101	-0.125
0.259	-0.22	-0.479	-0.019	0.368	-0.349	0.37	-0.139	0.098	0.33	-0.103	-0.128
0.256	-0.221	-0.478	-0.017	0.367	-0.349	0.386	-0.108	0.117	0.34	-0.096	-0.121
0.26	-0.205	-0.466	-0.026	0.362	-0.336	0.411	-0.071	0.147	0.361	-0.08	-0.109
0.266	-0.207	-0.474	-0.029	0.369	-0.341	0.426	-0.041	0.167	0.368	-0.079	-0.108
0.282	-0.205	-0.489	-0.038	0.386	-0.347	0.429	-0.017	0.178	0.371	-0.076	-0.106
0.289	-0.199	-0.489	-0.045	0.389	-0.344	0.429	-0.007	0.183	0.373	-0.076	-0.107
0.28	-0.192	-0.473	-0.043	0.377	-0.333	0.432	0.004	0.188	0.374	-0.077	-0.11
0.278	-0.187	-0.466	-0.044	0.371	-0.327	0.44	0.014	0.191	0.373	-0.077	-0.112
0.279	-0.19	-0.469	-0.044	0.373	-0.33	0.443	0.018	0.19	0.369	-0.083	-0.113
0.28	-0.186	-0.468	-0.046	0.373	-0.328	0.443	0.022	0.188	0.364	-0.089	-0.115
0.278	-0.188	-0.467	-0.045	0.372	-0.327	0.447	0.026	0.185	0.356	-0.093	-0.122
0.272	-0.188	-0.461	-0.042	0.366	-0.325	0.451	0.035	0.189	0.356	-0.093	-0.124
0.275	-0.185	-0.462	-0.044	0.368	-0.324	0.453	0.041	0.19	0.356	-0.095	-0.126
0.277	-0.189	-0.467	-0.044	0.371	-0.328	0.451	0.041	0.186	0.351	-0.1	-0.131
0.278	-0.187	-0.466	-0.044	0.371	-0.327	0.455	0.043	0.184	0.347	-0.104	-0.137
0.277	-0.195	-0.472	-0.041	0.374	-0.334	0.455	0.046	0.183	0.342	-0.107	-0.14
0.272	-0.203	-0.476	-0.034	0.374	-0.341	0.454	0.051	0.186	0.342	-0.11	-0.141
0.272	-0.204	-0.477	-0.033	0.374	-0.342	0.456	0.059	0.19	0.342	-0.11	-0.141
0.267	-0.206	-0.474	-0.03	0.37	-0.341	0.455	0.065	0.196	0.345	-0.105	-0.136
0.26	-0.202	-0.463	-0.029	0.361	-0.333	0.458	0.075	0.203	0.35	-0.1	-0.131
0.257	-0.207	-0.466	-0.024	0.361	-0.337	0.459	0.08	0.204	0.349	-0.105	-0.135
0.27	-0.203	-0.474	-0.033	0.371	-0.339	0.46	0.08	0.204	0.347	-0.111	-0.139
0.27	-0.207	-0.478	-0.03	0.373	-0.343	0.461	0.08	0.201	0.343	-0.117	-0.144
0.274	-0.209	-0.483	-0.032	0.378	-0.346	0.461	0.084	0.202	0.341	-0.12	-0.149
0.283	-0.198	-0.482	-0.042	0.383	-0.341	0.466	0.091	0.208	0.344	-0.117	-0.145
0.281	-0.205	-0.487	-0.037	0.384	-0.346	0.461	0.088	0.207	0.341	-0.12	-0.147
0.284	-0.206	-0.491	-0.038	0.388	-0.348	0.461	0.092	0.208	0.341	-0.119	-0.148
0.284	-0.202	-0.487	-0.041	0.386	-0.344	0.469	0.1	0.211	0.343	-0.119	-0.147
0.271	-0.205	-0.477	-0.033	0.374	-0.342	0.47	0.103	0.214	0.347	-0.117	-0.144
0.258	-0.206	-0.465	-0.025	0.361	-0.336	0.471	0.108	0.219	0.351	-0.114	-0.141
0.252	-0.217	-0.469	-0.017	0.36	-0.344	0.469	0.108	0.219	0.349	-0.118	-0.142
0.245	-0.229	-0.474	-0.008	0.359	-0.351	0.469	0.109	0.22	0.345	-0.123	-0.149
0.268	-0.214	-0.482	-0.026	0.374	-0.348	0.468	0.114	0.222	0.346	-0.122	-0.15
0.286	-0.204	-0.491	-0.041	0.389	-0.348	0.461	0.112	0.218	0.344	-0.123	-0.152
0.296	-0.203	-0.5	-0.045	0.398	-0.351	0.461	0.112	0.216	0.34	-0.126	-0.154
0.294	-0.206	-0.502	-0.043	0.398	-0.354	0.469	0.12	0.223	0.344	-0.122	-0.15
0.284	-0.213	-0.499	-0.035	0.391	-0.356	0.467	0.122	0.224	0.344	-0.124	-0.154
0.285	-0.209	-0.494	-0.037	0.39	-0.351	0.465	0.123	0.224	0.344	-0.126	-0.155
0.287	-0.205	-0.493	-0.041	0.39	-0.349	0.465	0.126	0.226	0.344	-0.126	-0.153
0.286	-0.21	-0.497	-0.037	0.392	-0.354	0.464	0.126	0.223	0.342	-0.127	-0.153
0.262	-0.214	-0.476	-0.024	0.369	-0.345	0.471	0.135	0.232	0.349	-0.121	-0.149
0.266	-0.21	-0.477	-0.027	0.371	-0.344	0.47	0.137	0.232	0.347	-0.122	-0.148
0.279	-0.216	-0.495	-0.031	0.387	-0.355	0.466	0.133	0.227	0.342	-0.127	-0.15
0.275	-0.225	-0.5	-0.024	0.387	-0.362	0.464	0.134	0.23	0.345	-0.124	-0.152
0.268	-0.225	-0.493	-0.021	0.381	-0.359	0.466	0.138	0.236	0.352	-0.117	-0.146
0.261	-0.223	-0.485	-0.018	0.372	-0.353	0.468	0.141	0.237	0.352	-0.115	-0.141
0.276	-0.218	-0.495	-0.029	0.386	-0.356	0.459	0.129	0.229	0.346	-0.119	-0.143
0.288	-0.205	-0.495	-0.041	0.391	-0.35	0.46	0.126	0.23	0.345	-0.119	-0.144
0.289	-0.196	-0.486	-0.046	0.388	-0.341	0.47	0.137	0.24	0.352	-0.114	-0.141
0.283	-0.199	-0.483	-0.042	0.384	-0.342	0.47	0.142	0.245	0.357	-0.109	-0.138
0.281	-0.207	-0.488	-0.036	0.385	-0.347	0.465	0.141	0.243	0.357	-0.109	-0.14
0.287	-0.212	-0.5	-0.037	0.394	-0.356	0.459	0.137	0.239	0.352	-0.114	-0.142
0.284	-0.216	-0.502	-0.034	0.393	-0.359	0.457	0.137	0.24	0.353	-0.111	-0.143
0.283	-0.217	-0.501	-0.033	0.392	-0.358	0.461	0.141	0.246	0.36	-0.106	-0.14
0.286	-0.21	-0.498	-0.038	0.392	-0.354	0.46	0.143	0.247	0.359	-0.107	-0.139
0.302	-0.203	-0.506	-0.049	0.404	-0.354	0.46	0.146	0.251	0.363	-0.104	-0.138
0.317	-0.213	-0.531	-0.051	0.424	-0.372	0.462	0.148	0.254	0.364	-0.102	-0.136
0.3	-0.211	-0.512	-0.044	0.406	-0.361	0.463	0.15	0.255	0.363	-0.103	-0.138
0.277	-0.217	-0.494	-0.029	0.385	-0.355	0.466	0.152	0.257	0.364	-0.103	-0.14
0.28	-0.221	-0.501	-0.029	0.391	-0.361	0.469	0.156	0.259	0.366	-0.103	-0.138
0.294	-0.207	-0.502	-0.043	0.398	-0.354	0.466	0.158	0.26	0.368	-0.103	-0.138
0.296	-0.212	-0.509	-0.042	0.403	-0.36	0.459	0.153	0.256	0.363	-0.108	-0.14
0.286	-0.21	-0.498	-0.037	0.392	-0.354	0.462	0.157	0.261	0.366	-0.105	-0.14
0.276	-0.211	-0.488	-0.032	0.382	-0.349	0.46	0.159	0.261	0.366	-0.105	-0.141
0.296	-0.205	-0.501	-0.045	0.399	-0.353	0.459	0.158	0.261	0.365	-0.106	-0.14
0.311	-0.2	-0.512	-0.056	0.411	-0.355	0.461	0.164	0.269	0.37	-0.1	-0.135
0.295	-0.208	-0.504	-0.043	0.399	-0.356	0.458	0.164	0.269	0.371	-0.098	-0.135
0.299	-0.205	-0.505	-0.047	0.402	-0.355	0.454	0.162	0.269	0.372	-0.098	-0.137
0.31	-0.203	-0.515	-0.053	0.412	-0.358	0.452	0.16	0.266	0.368	-0.102	-0.141
0.303	-0.208	-0.513	-0.048	0.408	-0.36	0.453	0.159	0.262	0.364	-0.107	-0.146
0.326	-0.203	-0.529	-0.061	0.427	-0.365	0.448	0.155	0.26	0.36	-0.111	-0.147
0.34	-0.198	-0.538	-0.07	0.439	-0.367	0.443	0.156	0.258	0.358	-0.112	-0.148
0.323	-0.205	-0.529	-0.058	0.426	-0.367	0.443	0.159	0.262	0.361	-0.108	-0.147
0.309	-0.208	-0.518	-0.05	0.413	-0.362	0.448	0.162	0.266	0.365	-0.105	-0.145
0.279	-0.204	-0.484	-0.036	0.381	-0.344	0.461	0.174	0.279	0.377	-0.093	-0.133
0.27	-0.197	-0.468	-0.036	0.368	-0.333	0.464	0.183	0.289	0.386	-0.082	-0.122
0.278	-0.183	-0.462	-0.046	0.369	-0.323	0.469	0.191	0.297	0.395	-0.075	-0.116
0.279	-0.189	-0.469	-0.044	0.374	-0.33	0.467	0.193	0.298	0.396	-0.075	-0.114
0.282	-0.203	-0.487	-0.038	0.385	-0.345	0.454	0.184	0.29	0.388	-0.085	-0.124
0.287	-0.202	-0.49	-0.042	0.389	-0.346	0.455	0.184	0.288	0.386	-0.09	-0.128
0.297	-0.2	-0.497	-0.048	0.397	-0.348	0.454	0.188	0.288	0.385	-0.091	-0.127
0.29	-0.207	-0.499	-0.041	0.395	-0.353	0.455	0.186	0.288	0.383	-0.092	-0.129
0.291	-0.207	-0.5	-0.042	0.396	-0.353	0.459	0.189	0.289	0.384	-0.093	-0.128
0.299	-0.2	-0.499	-0.05	0.399	-0.349	0.459	0.193	0.293	0.389	-0.09	-0.126
0.295	-0.201	-0.497	-0.046	0.396	-0.349	0.46	0.192	0.294	0.389	-0.09	-0.127
0.291	-0.204	-0.496	-0.043	0.394	-0.35	0.456	0.189	0.291	0.385	-0.095	-0.131
0.296	-0.199	-0.495	-0.048	0.396	-0.346	0.452	0.186	0.291	0.383	-0.099	-0.135
0.31	-0.19	-0.501	-0.059	0.406	-0.345	0.457	0.194	0.298	0.389	-0.092	-0.131
0.308	-0.193	-0.501	-0.058	0.405	-0.346	0.457	0.199	0.302	0.393	-0.09	-0.13
0.301	-0.199	-0.501	-0.051	0.401	-0.35	0.452	0.195	0.301	0.389	-0.095	-0.135
0.303	-0.199	-0.502	-0.052	0.403	-0.35	0.453	0.195	0.3	0.386	-0.097	-0.137
0.3	-0.196	-0.497	-0.051	0.399	-0.346	0.454	0.197	0.304	0.388	-0.095	-0.136
0.306	-0.191	-0.498	-0.058	0.402	-0.344	0.455	0.2	0.307	0.389	-0.092	-0.133
0.3	-0.187	-0.488	-0.056	0.394	-0.338	0.457	0.204	0.312	0.394	-0.086	-0.128
0.294	-0.184	-0.48	-0.054	0.387	-0.333	0.459	0.208	0.318	0.4	-0.081	-0.124
0.312	-0.183	-0.496	-0.064	0.405	-0.34	0.454	0.206	0.315	0.399	-0.082	-0.126
0.311	-0.189	-0.5	-0.061	0.406	-0.344	0.455	0.207	0.317	0.4	-0.083	-0.128
0.314	-0.188	-0.503	-0.062	0.408	-0.345	0.456	0.205	0.318	0.404	-0.08	-0.123
0.321	-0.183	-0.505	-0.068	0.412	-0.344	0.451	0.205	0.32	0.406	-0.077	-0.122
0.331	-0.178	-0.51	-0.075	0.42	-0.344	0.451	0.214	0.327	0.411	-0.074	-0.119
0.341	-0.17	-0.512	-0.085	0.426	-0.342	0.45	0.22	0.333	0.419	-0.067	-0.112
0.327	-0.176	-0.504	-0.074	0.415	-0.341	0.449	0.22	0.336	0.423	-0.066	-0.114
0.314	-0.183	-0.498	-0.065	0.406	-0.341	0.451	0.222	0.338	0.424	-0.066	-0.115
0.322	-0.174	-0.497	-0.073	0.409	-0.336	0.456	0.229	0.345	0.429	-0.059	-0.109
0.333	-0.169	-0.502	-0.082	0.417	-0.336	0.454	0.231	0.348	0.432	-0.056	-0.107
0.321	-0.176	-0.499	-0.071	0.409	-0.338	0.449	0.232	0.349	0.433	-0.056	-0.108
0.311	-0.181	-0.494	-0.065	0.403	-0.338	0.447	0.233	0.351	0.434	-0.056	-0.107
0.31	-0.184	-0.495	-0.062	0.402	-0.34	0.442	0.228	0.349	0.431	-0.059	-0.111
0.319	-0.179	-0.499	-0.069	0.408	-0.34	0.442	0.232	0.352	0.434	-0.059	-0.11
0.34	-0.166	-0.506	-0.086	0.423	-0.337	0.442	0.235	0.357	0.435	-0.057	-0.107
0.347	-0.169	-0.516	-0.089	0.431	-0.343	0.44	0.234	0.357	0.433	-0.06	-0.108
0.343	-0.17	-0.513	-0.086	0.428	-0.342	0.445	0.24	0.363	0.437	-0.058	-0.106
0.334	-0.169	-0.503	-0.082	0.418	-0.336	0.447	0.242	0.367	0.442	-0.053	-0.105
0.334	-0.172	-0.507	-0.081	0.42	-0.34	0.445	0.239	0.366	0.441	-0.055	-0.108
0.339	-0.171	-0.511	-0.084	0.425	-0.342	0.439	0.238	0.364	0.44	-0.057	-0.113
0.341	-0.163	-0.504	-0.088	0.422	-0.334	0.444	0.246	0.372	0.449	-0.048	-0.104
0.337	-0.161	-0.499	-0.087	0.417	-0.331	0.45	0.253	0.378	0.454	-0.043	-0.1
0.331	-0.164	-0.496	-0.083	0.413	-0.331	0.447	0.257	0.381	0.457	-0.042	-0.1
0.332	-0.159	-0.491	-0.086	0.411	-0.326	0.45	0.26	0.387	0.461	-0.039	-0.098
0.32	-0.166	-0.486	-0.076	0.403	-0.327	0.447	0.261	0.389	0.461	-0.039	-0.098
0.319	-0.167	-0.487	-0.075	0.403	-0.327	0.447	0.265	0.39	0.463	-0.038	-0.098
0.336	-0.157	-0.493	-0.089	0.414	-0.326	0.448	0.267	0.391	0.463	-0.037	-0.099
0.336	-0.159	-0.495	-0.088	0.415	-0.327	0.448	0.271	0.394	0.466	-0.035	-0.096
0.338	-0.162	-0.5	-0.088	0.419	-0.332	0.447	0.271	0.392	0.465	-0.036	-0.097
0.344	-0.155	-0.499	-0.093	0.421	-0.328	0.446	0.274	0.395	0.466	-0.034	-0.095
0.329	-0.159	-0.488	-0.085	0.408	-0.324	0.447	0.28	0.402	0.471	-0.03	-0.092
0.325	-0.161	-0.486	-0.082	0.406	-0.324	0.45	0.281	0.402	0.471	-0.031	-0.093
0.34	-0.15	-0.49	-0.095	0.415	-0.321	0.451	0.284	0.406	0.474	-0.029	-0.091
0.347	-0.148	-0.495	-0.1	0.421	-0.322	0.447	0.285	0.406	0.476	-0.029	-0.092
0.341	-0.146	-0.487	-0.098	0.414	-0.317	0.446	0.288	0.408	0.48	-0.025	-0.092
0.336	-0.151	-0.488	-0.092	0.412	-0.321	0.447	0.291	0.413	0.485	-0.021	-0.09
0.344	-0.153	-0.499	-0.095	0.421	-0.327	0.449	0.296	0.418	0.492	-0.017	-0.087
0.352	-0.152	-0.505	-0.099	0.428	-0.33	0.452	0.301	0.425	0.499	-0.01	-0.083
0.361	-0.152	-0.513	-0.104	0.437	-0.333	0.452	0.302	0.427	0.501	-0.009	-0.082
0.364	-0.144	-0.509	-0.11	0.437	-0.327	0.453	0.31	0.436	0.509	-0.002	-0.075
0.355	-0.144	-0.5	-0.105	0.427	-0.322	0.454	0.316	0.441	0.513	0.002	-0.073
0.356	-0.142	-0.499	-0.107	0.427	-0.321	0.452	0.315	0.439	0.511	-0.001	-0.078
0.364	-0.138	-0.502	-0.113	0.432	-0.32	0.443	0.316	0.442	0.512	0.003	-0.075
0.365	-0.136	-0.501	-0.115	0.433	-0.319	0.442	0.322	0.447	0.515	0.005	-0.074
0.367	-0.137	-0.504	-0.115	0.435	-0.321	0.444	0.326	0.452	0.519	0.008	-0.072
0.363	-0.137	-0.5	-0.114	0.431	-0.319	0.447	0.331	0.458	0.527	0.013	-0.067
0.358	-0.131	-0.49	-0.114	0.424	-0.31	0.451	0.34	0.467	0.535	0.019	-0.062
0.358	-0.132	-0.491	-0.113	0.424	-0.311	0.447	0.343	0.468	0.534	0.021	-0.063
0.374	-0.135	-0.51	-0.119	0.442	-0.323	0.443	0.339	0.463	0.528	0.017	-0.067
0.387	-0.136	-0.523	-0.125	0.455	-0.329	0.44	0.339	0.462	0.528	0.017	-0.066
0.372	-0.137	-0.51	-0.117	0.441	-0.324	0.443	0.344	0.466	0.532	0.018	-0.067
0.378	-0.129	-0.507	-0.124	0.442	-0.318	0.447	0.35	0.471	0.537	0.02	-0.068
0.389	-0.126	-0.515	-0.131	0.452	-0.321	0.444	0.348	0.472	0.54	0.022	-0.068
0.381	-0.128	-0.509	-0.126	0.445	-0.319	0.442	0.348	0.472	0.54	0.024	-0.065
0.375	-0.123	-0.499	-0.125	0.436	-0.311	0.449	0.358	0.48	0.546	0.029	-0.061
0.364	-0.126	-0.49	-0.118	0.427	-0.308	0.45	0.365	0.487	0.555	0.036	-0.054
0.356	-0.12	-0.477	-0.117	0.416	-0.299	0.449	0.376	0.498	0.567	0.047	-0.043
0.378	-0.106	-0.484	-0.136	0.431	-0.295	0.453	0.384	0.507	0.574	0.054	-0.038
0.39	-0.102	-0.493	-0.143	0.442	-0.297	0.448	0.382	0.502	0.571	0.052	-0.043
0.373	-0.106	-0.48	-0.133	0.426	-0.293	0.448	0.386	0.503	0.571	0.053	-0.044
0.378	-0.109	-0.487	-0.134	0.432	-0.298	0.444	0.387	0.502	0.571	0.053	-0.043
0.374	-0.105	-0.48	-0.134	0.426	-0.292	0.446	0.393	0.509	0.577	0.058	-0.041
0.368	-0.109	-0.478	-0.129	0.423	-0.293	0.451	0.4	0.515	0.584	0.063	-0.04
0.382	-0.112	-0.494	-0.135	0.438	-0.302	0.449	0.401	0.514	0.585	0.061	-0.041
0.4	-0.099	-0.499	-0.15	0.45	-0.299	0.456	0.408	0.52	0.589	0.066	-0.035
0.407	-0.097	-0.504	-0.154	0.456	-0.3	0.455	0.409	0.521	0.589	0.067	-0.035
0.398	-0.098	-0.496	-0.149	0.447	-0.297	0.452	0.412	0.522	0.591	0.068	-0.036
0.398	-0.099	-0.498	-0.149	0.448	-0.298	0.455	0.416	0.528	0.597	0.072	-0.033
0.382	-0.105	-0.487	-0.138	0.434	-0.296	0.456	0.422	0.535	0.604	0.079	-0.027
0.369	-0.1	-0.47	-0.134	0.419	-0.285	0.459	0.427	0.539	0.608	0.084	-0.024
0.386	-0.09	-0.476	-0.147	0.431	-0.283	0.458	0.428	0.542	0.612	0.087	-0.022
0.398	-0.086	-0.485	-0.155	0.442	-0.286	0.451	0.429	0.544	0.614	0.088	-0.02
0.406	-0.087	-0.494	-0.159	0.45	-0.291	0.449	0.429	0.543	0.614	0.087	-0.021
0.4	-0.086	-0.487	-0.157	0.444	-0.286	0.446	0.433	0.547	0.619	0.093	-0.015
0.401	-0.086	-0.487	-0.157	0.444	-0.287	0.441	0.433	0.548	0.621	0.093	-0.015
0.404	-0.085	-0.489	-0.159	0.447	-0.287	0.441	0.436	0.55	0.622	0.092	-0.018
0.405	-0.08	-0.486	-0.162	0.446	-0.283	0.444	0.443	0.556	0.626	0.097	-0.015
0.406	-0.084	-0.492	-0.161	0.45	-0.288	0.443	0.441	0.556	0.627	0.095	-0.019
0.391	-0.08	-0.471	-0.155	0.431	-0.276	0.451	0.451	0.567	0.637	0.105	-0.011
0.393	-0.065	-0.458	-0.163	0.425	-0.262	0.458	0.46	0.578	0.65	0.116	-0.001
0.408	-0.059	-0.468	-0.174	0.439	-0.264	0.451	0.457	0.572	0.645	0.113	-0.003
0.405	-0.064	-0.47	-0.17	0.438	-0.267	0.453	0.461	0.571	0.641	0.113	-0.004
0.387	-0.08	-0.467	-0.152	0.426	-0.274	0.454	0.462	0.572	0.643	0.112	-0.007
0.406	-0.075	-0.482	-0.165	0.444	-0.279	0.448	0.46	0.569	0.643	0.113	-0.008
0.439	-0.057	-0.496	-0.191	0.467	-0.276	0.448	0.466	0.575	0.648	0.118	-0.002
0.425	-0.044	-0.47	-0.19	0.448	-0.258	0.459	0.477	0.586	0.658	0.124	0.002
0.405	-0.046	-0.452	-0.179	0.428	-0.249	0.466	0.484	0.592	0.662	0.128	0.002
0.412	-0.051	-0.464	-0.18	0.438	-0.258	0.457	0.479	0.587	0.659	0.124	0.001
0.424	-0.048	-0.473	-0.188	0.449	-0.261	0.456	0.479	0.588	0.661	0.126	0.002
0.43	-0.043	-0.474	-0.194	0.452	-0.259	0.454	0.477	0.587	0.662	0.128	0.003
0.44	-0.034	-0.474	-0.203	0.457	-0.254	0.443	0.469	0.583	0.66	0.126	0.004
0.43	-0.032	-0.463	-0.199	0.447	-0.247	0.441	0.474	0.59	0.665	0.133	0.007
0.42	-0.034	-0.456	-0.193	0.438	-0.245	0.439	0.481	0.598	0.672	0.138	0.011
0.432	-0.028	-0.462	-0.202	0.447	-0.244	0.441	0.489	0.606	0.683	0.145	0.018
0.432	-0.015	-0.45	-0.208	0.441	-0.233	0.451	0.497	0.614	0.693	0.155	0.026
0.424	-0.015	-0.441	-0.204	0.432	-0.228	0.452	0.497	0.612	0.693	0.157	0.029
0.428	-0.021	-0.45	-0.203	0.439	-0.235	0.442	0.487	0.604	0.686	0.151	0.026
0.433	-0.021	-0.455	-0.205	0.444	-0.238	0.433	0.479	0.6	0.682	0.147	0.021
0.435	-0.022	-0.459	-0.206	0.447	-0.24	0.433	0.481	0.6	0.683	0.149	0.021
0.443	-0.015	-0.46	-0.213	0.451	-0.237	0.432	0.48	0.602	0.683	0.149	0.019
0.447	-0.011	-0.458	-0.217	0.452	-0.234	0.435	0.485	0.607	0.689	0.156	0.024
0.443	-0.011	-0.455	-0.215	0.449	-0.233	0.439	0.49	0.611	0.693	0.16	0.026
0.424	-0.007	-0.433	-0.208	0.429	-0.22	0.445	0.493	0.617	0.699	0.165	0.029
0.423	-0.002	-0.427	-0.21	0.425	-0.214	0.448	0.497	0.622	0.704	0.169	0.03
0.441	-0.001	-0.443	-0.22	0.442	-0.222	0.445	0.493	0.619	0.7	0.163	0.025
0.428	-0.001	-0.431	-0.213	0.43	-0.216	0.452	0.5	0.624	0.705	0.17	0.033
0.425	0.005	-0.421	-0.214	0.423	-0.208	0.455	0.505	0.626	0.707	0.174	0.037
0.424	0.005	-0.42	-0.214	0.422	-0.207	0.449	0.499	0.624	0.706	0.175	0.035
0.423	0.007	-0.417	-0.215	0.42	-0.204	0.451	0.502	0.626	0.711	0.18	0.042
0.432	0.013	-0.42	-0.223	0.426	-0.203	0.45	0.497	0.625	0.713	0.18	0.043
0.428	0.013	-0.416	-0.221	0.422	-0.201	0.446	0.49	0.62	0.709	0.174	0.036
0.427	0.013	-0.414	-0.22	0.42	-0.2	0.444	0.488	0.619	0.709	0.173	0.034
0.43	0.018	-0.413	-0.224	0.422	-0.197	0.448	0.49	0.623	0.715	0.177	0.037
0.448	0.033	-0.416	-0.239	0.432	-0.192	0.447	0.491	0.625	0.719	0.182	0.043
0.44	0.029	-0.412	-0.234	0.426	-0.192	0.446	0.487	0.626	0.722	0.181	0.042
0.418	0.024	-0.396	-0.22	0.406	-0.186	0.452	0.489	0.629	0.725	0.18	0.041
0.415	0.025	-0.392	-0.22	0.404	-0.184	0.451	0.486	0.628	0.728	0.181	0.043
0.417	0.025	-0.394	-0.221	0.406	-0.184	0.45	0.483	0.627	0.726	0.181	0.045
0.418	0.028	-0.392	-0.223	0.405	-0.182	0.445	0.478	0.622	0.724	0.18	0.042
0.409	0.021	-0.389	-0.214	0.399	-0.184	0.442	0.469	0.615	0.719	0.177	0.036
0.419	0.028	-0.393	-0.224	0.406	-0.182	0.446	0.466	0.614	0.719	0.177	0.037
0.427	0.03	-0.398	-0.228	0.412	-0.184	0.444	0.461	0.611	0.716	0.177	0.035
0.416	0.03	-0.387	-0.223	0.402	-0.178	0.443	0.458	0.608	0.714	0.176	0.035
0.421	0.037	-0.385	-0.229	0.403	-0.174	0.443	0.453	0.606	0.715	0.174	0.035
0.419	0.036	-0.384	-0.228	0.402	-0.173	0.443	0.448	0.603	0.713	0.173	0.034
0.42	0.043	-0.379	-0.231	0.399	-0.168	0.447	0.446	0.603	0.716	0.176	0.037
0.42	0.045	-0.376	-0.233	0.398	-0.165	0.451	0.442	0.601	0.714	0.174	0.034
0.418	0.04	-0.379	-0.229	0.399	-0.17	0.451	0.434	0.596	0.71	0.168	0.029
0.416	0.035	-0.382	-0.226	0.4	-0.173	0.449	0.429	0.592	0.709	0.164	0.028
0.41	0.031	-0.381	-0.22	0.396	-0.175	0.448	0.423	0.585	0.702	0.159	0.028
0.403	0.025	-0.38	-0.213	0.391	-0.177	0.447	0.417	0.581	0.698	0.157	0.026
0.393	0.022	-0.371	-0.207	0.382	-0.174	0.452	0.413	0.578	0.694	0.152	0.022
0.395	0.018	-0.378	-0.205	0.386	-0.18	0.449	0.402	0.565	0.679	0.141	0.014
0.399	0.016	-0.384	-0.207	0.392	-0.184	0.45	0.396	0.558	0.671	0.135	0.011
0.396	0.024	-0.372	-0.209	0.384	-0.174	0.454	0.391	0.554	0.668	0.132	0.01
0.387	0.018	-0.369	-0.202	0.378	-0.176	0.451	0.382	0.545	0.66	0.124	0.004
0.385	0.009	-0.377	-0.196	0.381	-0.184	0.446	0.369	0.533	0.65	0.117	-0.001
0.392	0.013	-0.38	-0.202	0.386	-0.183	0.441	0.358	0.522	0.642	0.111	-0.007
0.392	0.003	-0.39	-0.197	0.391	-0.194	0.439	0.35	0.516	0.639	0.107	-0.009
0.391	-0.006	-0.398	-0.191	0.394	-0.203	0.438	0.344	0.509	0.637	0.104	-0.011
0.389	-0.011	-0.401	-0.188	0.395	-0.206	0.436	0.337	0.503	0.632	0.099	-0.015
0.38	-0.029	-0.409	-0.175	0.395	-0.219	0.433	0.325	0.492	0.626	0.093	-0.019
0.368	-0.03	-0.399	-0.169	0.383	-0.214	0.434	0.317	0.484	0.622	0.092	-0.021
0.37	-0.018	-0.39	-0.175	0.38	-0.204	0.44	0.317	0.484	0.623	0.094	-0.018
0.371	-0.018	-0.39	-0.175	0.38	-0.204	0.442	0.308	0.477	0.619	0.088	-0.019
0.363	-0.017	-0.38	-0.172	0.371	-0.199	0.444	0.299	0.468	0.613	0.085	-0.022
0.364	-0.013	-0.379	-0.175	0.371	-0.196	0.445	0.293	0.46	0.607	0.083	-0.025
0.353	-0.029	-0.383	-0.162	0.367	-0.205	0.44	0.28	0.445	0.591	0.067	-0.036
0.348	-0.038	-0.387	-0.154	0.367	-0.213	0.435	0.267	0.43	0.578	0.057	-0.042
0.359	-0.035	-0.395	-0.162	0.377	-0.214	0.432	0.26	0.422	0.572	0.052	-0.045
0.37	-0.033	-0.404	-0.168	0.387	-0.218	0.435	0.252	0.415	0.565	0.049	-0.048
0.368	-0.038	-0.408	-0.165	0.388	-0.223	0.434	0.243	0.404	0.555	0.042	-0.053
0.356	-0.048	-0.405	-0.153	0.38	-0.226	0.433	0.235	0.395	0.547	0.035	-0.058
0.343	-0.053	-0.397	-0.144	0.369	-0.225	0.436	0.232	0.392	0.544	0.035	-0.055
0.336	-0.058	-0.394	-0.138	0.364	-0.226	0.434	0.225	0.387	0.54	0.033	-0.055
0.334	-0.061	-0.396	-0.136	0.364	-0.228	0.435	0.216	0.378	0.533	0.026	-0.06
0.322	-0.064	-0.386	-0.128	0.353	-0.225	0.435	0.209	0.368	0.525	0.019	-0.068
0.324	-0.061	-0.386	-0.13	0.354	-0.224	0.434	0.203	0.361	0.519	0.015	-0.07
0.331	-0.066	-0.397	-0.132	0.363	-0.231	0.433	0.198	0.352	0.512	0.007	-0.073
0.335	-0.072	-0.407	-0.131	0.371	-0.24	0.428	0.186	0.342	0.501	0.001	-0.079
0.33	-0.073	-0.403	-0.128	0.366	-0.238	0.428	0.18	0.337	0.494	-0.004	-0.083
0.323	-0.084	-0.407	-0.119	0.365	-0.245	0.427	0.175	0.33	0.487	-0.01	-0.086
0.318	-0.088	-0.407	-0.115	0.362	-0.248	0.428	0.168	0.321	0.477	-0.018	-0.09
0.304	-0.086	-0.391	-0.108	0.347	-0.239	0.433	0.167	0.318	0.472	-0.022	-0.091
0.316	-0.088	-0.405	-0.114	0.36	-0.246	0.432	0.163	0.312	0.469	-0.024	-0.091
0.318	-0.092	-0.41	-0.112	0.363	-0.252	0.431	0.154	0.302	0.463	-0.031	-0.098
0.314	-0.099	-0.413	-0.107	0.363	-0.256	0.43	0.146	0.296	0.457	-0.036	-0.102
0.305	-0.108	-0.413	-0.099	0.359	-0.261	0.425	0.139	0.286	0.449	-0.043	-0.106
0.294	-0.114	-0.409	-0.09	0.352	-0.262	0.42	0.131	0.278	0.442	-0.048	-0.11
0.315	-0.107	-0.423	-0.103	0.368	-0.265	0.419	0.13	0.276	0.439	-0.048	-0.107
0.312	-0.114	-0.427	-0.099	0.369	-0.271	0.415	0.124	0.269	0.432	-0.053	-0.112
0.29	-0.127	-0.417	-0.082	0.353	-0.272	0.416	0.12	0.264	0.425	-0.058	-0.117
0.3	-0.12	-0.42	-0.089	0.36	-0.271	0.42	0.118	0.26	0.423	-0.059	-0.115
0.326	-0.108	-0.434	-0.108	0.38	-0.272	0.424	0.119	0.258	0.421	-0.058	-0.112
0.323	-0.11	-0.432	-0.106	0.378	-0.271	0.428	0.122	0.259	0.42	-0.057	-0.112
0.304	-0.12	-0.424	-0.092	0.364	-0.273	0.423	0.114	0.253	0.415	-0.06	-0.116
0.305	-0.124	-0.43	-0.09	0.367	-0.277	0.422	0.107	0.247	0.411	-0.064	-0.117
0.311	-0.127	-0.439	-0.092	0.375	-0.283	0.417	0.099	0.239	0.405	-0.071	-0.121
0.301	-0.129	-0.43	-0.086	0.365	-0.28	0.416	0.097	0.234	0.401	-0.073	-0.123
0.287	-0.135	-0.423	-0.076	0.355	-0.279	0.423	0.099	0.236	0.406	-0.069	-0.12
0.293	-0.138	-0.431	-0.077	0.362	-0.284	0.429	0.095	0.233	0.403	-0.071	-0.121
0.304	-0.135	-0.44	-0.084	0.371	-0.287	0.431	0.094	0.228	0.397	-0.076	-0.123
0.308	-0.135	-0.444	-0.087	0.376	-0.289	0.426	0.088	0.223	0.393	-0.078	-0.123
0.312	-0.131	-0.444	-0.091	0.378	-0.287	0.425	0.086	0.22	0.392	-0.079	-0.122
0.303	-0.131	-0.434	-0.086	0.368	-0.282	0.426	0.091	0.222	0.393	-0.077	-0.12
0.301	-0.136	-0.438	-0.083	0.369	-0.286	0.416	0.084	0.216	0.387	-0.084	-0.126
0.301	-0.149	-0.451	-0.076	0.376	-0.3	0.406	0.074	0.206	0.379	-0.093	-0.134
0.307	-0.157	-0.465	-0.074	0.386	-0.311	0.396	0.067	0.199	0.371	-0.099	-0.136
0.318	-0.156	-0.475	-0.081	0.397	-0.316	0.394	0.061	0.19	0.364	-0.103	-0.14
0.31	-0.154	-0.467	-0.077	0.388	-0.31	0.398	0.061	0.184	0.36	-0.108	-0.142
0.314	-0.143	-0.457	-0.085	0.385	-0.3	0.398	0.063	0.186	0.363	-0.104	-0.136
0.299	-0.144	-0.444	-0.077	0.371	-0.294	0.402	0.065	0.19	0.368	-0.101	-0.137
0.286	-0.151	-0.439	-0.067	0.362	-0.295	0.398	0.064	0.19	0.368	-0.1	-0.136
0.293	-0.153	-0.448	-0.07	0.37	-0.3	0.399	0.063	0.19	0.368	-0.099	-0.135
0.273	-0.161	-0.433	-0.056	0.352	-0.297	0.406	0.068	0.193	0.372	-0.094	-0.131
0.265	-0.152	-0.418	-0.056	0.341	-0.285	0.41	0.073	0.199	0.38	-0.088	-0.124
0.281	-0.146	-0.427	-0.067	0.353	-0.286	0.411	0.071	0.198	0.378	-0.089	-0.126
0.278	-0.153	-0.432	-0.062	0.355	-0.293	0.408	0.07	0.196	0.372	-0.091	-0.128
0.274	-0.159	-0.433	-0.057	0.353	-0.296	0.407	0.071	0.194	0.371	-0.095	-0.13
0.275	-0.16	-0.435	-0.057	0.355	-0.297	0.406	0.069	0.191	0.367	-0.096	-0.129
0.294	-0.15	-0.445	-0.071	0.369	-0.298	0.405	0.065	0.189	0.365	-0.097	-0.127
0.296	-0.152	-0.449	-0.071	0.372	-0.3	0.406	0.061	0.186	0.364	-0.099	-0.131
0.273	-0.162	-0.435	-0.055	0.354	-0.298	0.404	0.052	0.178	0.359	-0.103	-0.136
0.282	-0.154	-0.438	-0.064	0.359	-0.296	0.404	0.051	0.18	0.359	-0.104	-0.135
0.293	-0.15	-0.445	-0.071	0.368	-0.297	0.407	0.057	0.183	0.359	-0.103	-0.134
0.292	-0.155	-0.449	-0.068	0.37	-0.302	0.412	0.059	0.185	0.358	-0.105	-0.136
0.282	-0.159	-0.442	-0.061	0.362	-0.3	0.41	0.061	0.187	0.359	-0.105	-0.135
0.274	-0.157	-0.431	-0.058	0.352	-0.294	0.409	0.061	0.186	0.363	-0.102	-0.131
0.276	-0.155	-0.431	-0.059	0.353	-0.293	0.41	0.06	0.187	0.364	-0.103	-0.132
0.274	-0.159	-0.433	-0.058	0.353	-0.296	0.411	0.058	0.184	0.363	-0.104	-0.133
0.28	-0.158	-0.438	-0.06	0.358	-0.298	0.415	0.06	0.185	0.365	-0.104	-0.134
0.28	-0.16	-0.441	-0.06	0.36	-0.3	0.41	0.06	0.181	0.362	-0.106	-0.137
0.277	-0.168	-0.446	-0.054	0.361	-0.306	0.405	0.056	0.175	0.358	-0.108	-0.137
0.281	-0.166	-0.448	-0.057	0.364	-0.307	0.409	0.054	0.172	0.354	-0.108	-0.137
0.297	-0.152	-0.451	-0.072	0.374	-0.301	0.411	0.058	0.177	0.358	-0.102	-0.131
0.297	-0.153	-0.452	-0.072	0.374	-0.302	0.407	0.056	0.176	0.356	-0.105	-0.135
0.277	-0.164	-0.442	-0.056	0.358	-0.303	0.405	0.052	0.172	0.352	-0.112	-0.142
0.281	-0.165	-0.447	-0.058	0.364	-0.306	0.406	0.051	0.173	0.353	-0.109	-0.137
0.299	-0.166	-0.467	-0.067	0.383	-0.317	0.404	0.048	0.171	0.352	-0.108	-0.136
0.31	-0.167	-0.478	-0.071	0.394	-0.323	0.402	0.044	0.167	0.351	-0.112	-0.139
0.292	-0.166	-0.459	-0.063	0.376	-0.312	0.405	0.046	0.168	0.352	-0.11	-0.14
0.267	-0.17	-0.437	-0.048	0.351	-0.303	0.412	0.058	0.176	0.361	-0.102	-0.137
0.267	-0.172	-0.44	-0.047	0.353	-0.306	0.412	0.058	0.178	0.362	-0.1	-0.134
0.277	-0.161	-0.439	-0.058	0.357	-0.299	0.412	0.058	0.179	0.363	-0.098	-0.133
0.294	-0.149	-0.445	-0.072	0.369	-0.297	0.415	0.064	0.185	0.369	-0.093	-0.13
0.298	-0.151	-0.45	-0.073	0.374	-0.301	0.413	0.062	0.183	0.365	-0.098	-0.134
0.291	-0.153	-0.446	-0.069	0.368	-0.299	0.412	0.061	0.182	0.365	-0.1	-0.135
0.285	-0.159	-0.445	-0.063	0.365	-0.301	0.41	0.063	0.185	0.366	-0.098	-0.134
0.283	-0.166	-0.45	-0.058	0.366	-0.308	0.408	0.061	0.184	0.366	-0.099	-0.133
0.285	-0.163	-0.449	-0.061	0.367	-0.306	0.406	0.058	0.18	0.365	-0.1	-0.133
0.287	-0.157	-0.445	-0.065	0.366	-0.301	0.403	0.056	0.177	0.361	-0.102	-0.138
0.291	-0.158	-0.45	-0.067	0.37	-0.304	0.401	0.052	0.175	0.358	-0.104	-0.141
0.284	-0.159	-0.444	-0.062	0.364	-0.301	0.4	0.052	0.174	0.357	-0.106	-0.142
0.275	-0.163	-0.439	-0.056	0.356	-0.301	0.403	0.055	0.176	0.357	-0.105	-0.142
0.279	-0.158	-0.438	-0.06	0.358	-0.298	0.403	0.053	0.174	0.357	-0.103	-0.138
0.28	-0.152	-0.433	-0.063	0.356	-0.293	0.406	0.054	0.175	0.359	-0.101	-0.138
0.277	-0.157	-0.435	-0.059	0.356	-0.296	0.406	0.053	0.173	0.356	-0.102	-0.14
0.281	-0.154	-0.436	-0.062	0.358	-0.295	0.402	0.052	0.173	0.355	-0.103	-0.14
0.292	-0.147	-0.441	-0.072	0.366	-0.294	0.407	0.055	0.177	0.358	-0.1	-0.137
0.291	-0.149	-0.442	-0.07	0.366	-0.295	0.406	0.054	0.175	0.357	-0.101	-0.138
0.276	-0.159	-0.436	-0.058	0.356	-0.298	0.405	0.054	0.174	0.353	-0.104	-0.142
0.286	-0.152	-0.44	-0.067	0.363	-0.296	0.407	0.058	0.178	0.356	-0.101	-0.137
0.286	-0.144	-0.431	-0.071	0.358	-0.287	0.411	0.064	0.184	0.362	-0.097	-0.132
0.268	-0.157	-0.425	-0.055	0.346	-0.291	0.407	0.06	0.183	0.36	-0.099	-0.135
0.27	-0.161	-0.431	-0.054	0.35	-0.296	0.402	0.057	0.18	0.356	-0.104	-0.138
0.285	-0.149	-0.435	-0.068	0.36	-0.292	0.411	0.062	0.183	0.358	-0.103	-0.137
0.293	-0.149	-0.444	-0.071	0.368	-0.296	0.407	0.059	0.184	0.356	-0.105	-0.138
0.287	-0.153	-0.442	-0.067	0.364	-0.298	0.402	0.056	0.18	0.35	-0.111	-0.144
0.285	-0.154	-0.441	-0.065	0.363	-0.298	0.401	0.056	0.181	0.35	-0.112	-0.145
0.295	-0.154	-0.451	-0.07	0.372	-0.302	0.397	0.054	0.18	0.349	-0.113	-0.145
0.295	-0.148	-0.445	-0.073	0.369	-0.297	0.398	0.057	0.181	0.351	-0.113	-0.145
0.278	-0.148	-0.426	-0.064	0.351	-0.287	0.404	0.064	0.188	0.359	-0.108	-0.141
0.275	-0.154	-0.429	-0.059	0.351	-0.292	0.405	0.064	0.19	0.361	-0.106	-0.141
0.281	-0.159	-0.441	-0.061	0.36	-0.3	0.4	0.061	0.188	0.36	-0.109	-0.144
0.285	-0.159	-0.445	-0.063	0.365	-0.302	0.402	0.06	0.187	0.359	-0.108	-0.144
0.294	-0.152	-0.448	-0.07	0.371	-0.3	0.401	0.053	0.182	0.355	-0.11	-0.145
0.296	-0.149	-0.447	-0.073	0.371	-0.298	0.398	0.052	0.18	0.353	-0.11	-0.145
0.301	-0.143	-0.446	-0.079	0.373	-0.294	0.407	0.06	0.185	0.358	-0.102	-0.138
0.295	-0.141	-0.438	-0.076	0.366	-0.289	0.407	0.061	0.184	0.359	-0.102	-0.135
0.298	-0.139	-0.438	-0.08	0.368	-0.288	0.411	0.063	0.184	0.358	-0.103	-0.138
0.304	-0.143	-0.449	-0.081	0.376	-0.296	0.415	0.065	0.183	0.356	-0.106	-0.14
0.29	-0.156	-0.447	-0.067	0.368	-0.302	0.403	0.059	0.178	0.354	-0.108	-0.143
0.29	-0.15	-0.441	-0.07	0.365	-0.295	0.401	0.062	0.184	0.36	-0.102	-0.136
0.288	-0.151	-0.441	-0.068	0.364	-0.296	0.396	0.059	0.182	0.359	-0.102	-0.136
0.29	-0.16	-0.451	-0.065	0.37	-0.306	0.387	0.05	0.174	0.353	-0.108	-0.142
0.288	-0.154	-0.444	-0.067	0.365	-0.299	0.392	0.058	0.183	0.361	-0.101	-0.136
0.274	-0.149	-0.424	-0.061	0.348	-0.287	0.402	0.07	0.193	0.372	-0.088	-0.122
0.268	-0.155	-0.423	-0.056	0.345	-0.289	0.404	0.07	0.192	0.372	-0.091	-0.124
0.271	-0.161	-0.432	-0.054	0.351	-0.297	0.397	0.066	0.185	0.366	-0.099	-0.133
0.282	-0.16	-0.443	-0.06	0.362	-0.302	0.399	0.062	0.183	0.364	-0.099	-0.132
0.288	-0.154	-0.444	-0.067	0.366	-0.299	0.401	0.059	0.179	0.361	-0.102	-0.133
0.287	-0.151	-0.439	-0.067	0.362	-0.295	0.404	0.061	0.181	0.362	-0.101	-0.132
0.278	-0.16	-0.439	-0.058	0.357	-0.299	0.403	0.061	0.183	0.361	-0.102	-0.135
0.276	-0.162	-0.439	-0.057	0.357	-0.3	0.4	0.06	0.18	0.357	-0.103	-0.137
0.279	-0.155	-0.435	-0.061	0.356	-0.295	0.404	0.064	0.183	0.361	-0.1	-0.133
0.28	-0.159	-0.44	-0.06	0.359	-0.299	0.399	0.061	0.181	0.361	-0.1	-0.131
0.284	-0.154	-0.44	-0.065	0.362	-0.297	0.4	0.062	0.182	0.362	-0.1	-0.132
0.283	-0.15	-0.434	-0.066	0.358	-0.292	0.404	0.061	0.182	0.364	-0.102	-0.134
0.282	-0.153	-0.436	-0.064	0.359	-0.295	0.402	0.059	0.183	0.362	-0.102	-0.135
0.269	-0.162	-0.432	-0.053	0.35	-0.297	0.4	0.059	0.183	0.363	-0.102	-0.137
0.265	-0.167	-0.432	-0.048	0.348	-0.3	0.401	0.06	0.183	0.361	-0.104	-0.138
0.268	-0.169	-0.439	-0.049	0.353	-0.304	0.402	0.06	0.18	0.357	-0.107	-0.14
0.274	-0.167	-0.442	-0.053	0.357	-0.304	0.403	0.058	0.179	0.357	-0.107	-0.138
0.3	-0.147	-0.449	-0.076	0.374	-0.298	0.407	0.065	0.183	0.362	-0.101	-0.133
0.301	-0.152	-0.454	-0.074	0.378	-0.303	0.404	0.06	0.176	0.355	-0.105	-0.136
0.29	-0.167	-0.458	-0.061	0.374	-0.313	0.398	0.052	0.168	0.344	-0.115	-0.141
0.291	-0.165	-0.457	-0.062	0.373	-0.311	0.398	0.052	0.169	0.344	-0.115	-0.141
0.291	-0.159	-0.451	-0.066	0.371	-0.305	0.399	0.053	0.171	0.344	-0.113	-0.141
0.298	-0.152	-0.452	-0.073	0.375	-0.302	0.399	0.056	0.174	0.345	-0.113	-0.139
0.287	-0.152	-0.44	-0.067	0.363	-0.296	0.398	0.057	0.174	0.346	-0.111	-0.139
0.29	-0.151	-0.443	-0.069	0.366	-0.297	0.392	0.054	0.17	0.344	-0.115	-0.141
0.292	-0.149	-0.442	-0.071	0.367	-0.296	0.393	0.056	0.172	0.348	-0.111	-0.137
0.267	-0.15	-0.417	-0.058	0.342	-0.284	0.404	0.067	0.182	0.359	-0.098	-0.129
0.266	-0.15	-0.417	-0.057	0.341	-0.284	0.404	0.066	0.18	0.356	-0.1	-0.129
0.283	-0.15	-0.435	-0.066	0.358	-0.293	0.401	0.062	0.178	0.35	-0.104	-0.132
0.302	-0.151	-0.455	-0.075	0.378	-0.303	0.394	0.056	0.173	0.346	-0.11	-0.136
0.311	-0.148	-0.46	-0.081	0.385	-0.304	0.384	0.047	0.163	0.336	-0.12	-0.144
0.31	-0.153	-0.464	-0.078	0.387	-0.308	0.383	0.038	0.157	0.33	-0.128	-0.15
0.31	-0.153	-0.464	-0.078	0.387	-0.309	0.382	0.033	0.153	0.33	-0.128	-0.147
0.291	-0.147	-0.44	-0.071	0.365	-0.293	0.39	0.048	0.167	0.343	-0.114	-0.135
0.268	-0.147	-0.416	-0.06	0.342	-0.282	0.397	0.058	0.177	0.352	-0.108	-0.13
0.255	-0.15	-0.406	-0.052	0.331	-0.279	0.397	0.06	0.178	0.353	-0.109	-0.13
0.256	-0.152	-0.409	-0.051	0.333	-0.281	0.397	0.058	0.176	0.352	-0.11	-0.132
0.26	-0.145	-0.405	-0.057	0.332	-0.275	0.396	0.052	0.171	0.348	-0.116	-0.14
0.262	-0.148	-0.41	-0.057	0.336	-0.28	0.397	0.053	0.172	0.349	-0.117	-0.141
0.27	-0.151	-0.422	-0.059	0.346	-0.287	0.397	0.053	0.172	0.351	-0.115	-0.139
0.272	-0.148	-0.421	-0.061	0.346	-0.284	0.394	0.052	0.167	0.349	-0.117	-0.141
0.275	-0.158	-0.434	-0.058	0.354	-0.296	0.39	0.049	0.163	0.346	-0.117	-0.141
0.275	-0.165	-0.441	-0.054	0.357	-0.303	0.391	0.049	0.162	0.344	-0.117	-0.141
0.276	-0.161	-0.438	-0.058	0.356	-0.299	0.391	0.048	0.16	0.344	-0.117	-0.141
0.28	-0.156	-0.437	-0.061	0.358	-0.296	0.39	0.048	0.162	0.346	-0.114	-0.139
0.282	-0.154	-0.438	-0.064	0.36	-0.296	0.394	0.049	0.164	0.345	-0.113	-0.137
0.287	-0.15	-0.439	-0.068	0.363	-0.295	0.39	0.046	0.162	0.343	-0.115	-0.137
0.284	-0.149	-0.434	-0.067	0.359	-0.292	0.391	0.048	0.165	0.343	-0.112	-0.134
0.279	-0.157	-0.437	-0.06	0.357	-0.297	0.396	0.049	0.166	0.343	-0.11	-0.132
0.281	-0.163	-0.445	-0.059	0.363	-0.304	0.39	0.045	0.162	0.339	-0.113	-0.136
0.287	-0.163	-0.45	-0.062	0.368	-0.306	0.39	0.044	0.16	0.338	-0.115	-0.137
0.284	-0.16	-0.446	-0.062	0.365	-0.303	0.388	0.043	0.16	0.336	-0.115	-0.137
0.278	-0.164	-0.443	-0.057	0.36	-0.304	0.39	0.043	0.158	0.336	-0.116	-0.138
0.28	-0.167	-0.447	-0.056	0.363	-0.307	0.394	0.044	0.159	0.337	-0.115	-0.138
0.277	-0.164	-0.442	-0.056	0.359	-0.303	0.394	0.047	0.161	0.34	-0.113	-0.134
0.273	-0.162	-0.436	-0.055	0.354	-0.299	0.397	0.048	0.162	0.341	-0.112	-0.136
0.288	-0.157	-0.447	-0.065	0.367	-0.302	0.392	0.042	0.158	0.336	-0.116	-0.141
0.291	-0.155	-0.448	-0.068	0.369	-0.301	0.395	0.045	0.159	0.339	-0.116	-0.138
0.281	-0.159	-0.441	-0.061	0.36	-0.3	0.393	0.044	0.158	0.338	-0.117	-0.143
0.28	-0.166	-0.447	-0.057	0.363	-0.306	0.385	0.035	0.15	0.332	-0.123	-0.148
0.29	-0.16	-0.452	-0.065	0.371	-0.306	0.383	0.036	0.148	0.331	-0.123	-0.146
0.292	-0.158	-0.451	-0.067	0.371	-0.304	0.382	0.039	0.146	0.328	-0.123	-0.144
0.277	-0.161	-0.438	-0.058	0.357	-0.299	0.386	0.043	0.15	0.334	-0.119	-0.138
0.276	-0.158	-0.434	-0.058	0.355	-0.296	0.384	0.042	0.152	0.337	-0.12	-0.14
0.267	-0.167	-0.434	-0.05	0.35	-0.3	0.38	0.036	0.148	0.333	-0.122	-0.145
0.27	-0.164	-0.434	-0.052	0.352	-0.299	0.376	0.034	0.144	0.328	-0.126	-0.148
0.281	-0.159	-0.44	-0.06	0.36	-0.299	0.377	0.034	0.143	0.327	-0.127	-0.15
0.283	-0.157	-0.441	-0.063	0.361	-0.298	0.378	0.032	0.142	0.326	-0.128	-0.149
0.297	-0.146	-0.444	-0.075	0.37	-0.295	0.381	0.035	0.142	0.329	-0.124	-0.145
0.276	-0.149	-0.426	-0.063	0.35	-0.287	0.387	0.038	0.147	0.335	-0.119	-0.142
0.255	-0.16	-0.415	-0.047	0.335	-0.288	0.383	0.035	0.145	0.332	-0.122	-0.146
0.265	-0.16	-0.425	-0.052	0.345	-0.293	0.379	0.033	0.142	0.328	-0.123	-0.146
0.276	-0.149	-0.426	-0.063	0.351	-0.288	0.379	0.027	0.138	0.328	-0.123	-0.145
0.281	-0.146	-0.428	-0.067	0.355	-0.288	0.381	0.021	0.134	0.325	-0.124	-0.145
0.28	-0.152	-0.434	-0.063	0.356	-0.293	0.377	0.013	0.13	0.319	-0.128	-0.149
0.283	-0.154	-0.439	-0.065	0.36	-0.296	0.376	0.014	0.129	0.319	-0.13	-0.15
0.286	-0.155	-0.443	-0.066	0.364	-0.299	0.379	0.018	0.129	0.319	-0.129	-0.148
0.286	-0.152	-0.44	-0.066	0.362	-0.296	0.378	0.021	0.132	0.319	-0.129	-0.148
0.28	-0.152	-0.433	-0.064	0.356	-0.293	0.376	0.021	0.134	0.319	-0.13	-0.149
0.276	-0.162	-0.44	-0.057	0.357	-0.301	0.376	0.019	0.13	0.315	-0.135	-0.151
0.282	-0.159	-0.442	-0.061	0.361	-0.3	0.379	0.021	0.13	0.315	-0.132	-0.15
0.281	-0.155	-0.438	-0.062	0.359	-0.296	0.38	0.021	0.131	0.316	-0.133	-0.15
0.28	-0.159	-0.44	-0.06	0.359	-0.299	0.381	0.021	0.129	0.313	-0.135	-0.15
0.284	-0.159	-0.444	-0.062	0.363	-0.302	0.38	0.019	0.128	0.31	-0.133	-0.15
0.281	-0.159	-0.442	-0.06	0.361	-0.301	0.382	0.018	0.128	0.31	-0.136	-0.152
0.27	-0.158	-0.428	-0.055	0.348	-0.293	0.386	0.021	0.131	0.315	-0.132	-0.147
0.263	-0.161	-0.424	-0.051	0.343	-0.292	0.386	0.02	0.131	0.314	-0.131	-0.145
0.262	-0.158	-0.421	-0.051	0.342	-0.29	0.385	0.018	0.129	0.311	-0.135	-0.15
0.264	-0.159	-0.424	-0.051	0.344	-0.292	0.382	0.016	0.127	0.31	-0.138	-0.153
0.267	-0.171	-0.439	-0.048	0.352	-0.305	0.374	0.01	0.122	0.305	-0.144	-0.158
0.258	-0.172	-0.431	-0.042	0.344	-0.302	0.378	0.015	0.128	0.309	-0.141	-0.155
0.256	-0.168	-0.425	-0.043	0.341	-0.296	0.382	0.018	0.13	0.312	-0.139	-0.153
0.269	-0.165	-0.434	-0.051	0.351	-0.299	0.381	0.017	0.128	0.312	-0.139	-0.152
0.26	-0.171	-0.431	-0.044	0.345	-0.301	0.382	0.016	0.127	0.312	-0.139	-0.154
0.261	-0.168	-0.429	-0.046	0.344	-0.298	0.381	0.017	0.129	0.314	-0.137	-0.153
0.276	-0.162	-0.439	-0.056	0.356	-0.3	0.38	0.02	0.13	0.312	-0.136	-0.151
0.268	-0.18	-0.449	-0.043	0.358	-0.315	0.372	0.012	0.121	0.304	-0.142	-0.157
0.272	-0.173	-0.446	-0.049	0.358	-0.309	0.372	0.014	0.124	0.306	-0.138	-0.154
0.271	-0.172	-0.443	-0.05	0.356	-0.307	0.378	0.019	0.127	0.31	-0.135	-0.15
0.258	-0.185	-0.444	-0.036	0.35	-0.315	0.373	0.018	0.126	0.309	-0.136	-0.154
0.262	-0.179	-0.442	-0.041	0.351	-0.31	0.376	0.021	0.128	0.309	-0.132	-0.15
0.271	-0.175	-0.447	-0.048	0.359	-0.311	0.38	0.021	0.127	0.305	-0.134	-0.147
0.286	-0.166	-0.453	-0.06	0.369	-0.309	0.378	0.019	0.124	0.301	-0.135	-0.147
0.291	-0.163	-0.455	-0.064	0.373	-0.308	0.377	0.016	0.12	0.297	-0.138	-0.148
0.288	-0.168	-0.457	-0.059	0.372	-0.312	0.376	0.011	0.114	0.291	-0.143	-0.154
0.282	-0.176	-0.46	-0.052	0.37	-0.319	0.372	0.005	0.108	0.283	-0.15	-0.161
0.273	-0.184	-0.458	-0.044	0.365	-0.321	0.37	0.002	0.106	0.28	-0.153	-0.163
0.278	-0.176	-0.455	-0.05	0.366	-0.316	0.379	0.009	0.112	0.287	-0.147	-0.158
0.283	-0.171	-0.455	-0.056	0.368	-0.312	0.379	0.007	0.108	0.288	-0.147	-0.156
0.271	-0.167	-0.438	-0.051	0.354	-0.302	0.381	0.009	0.108	0.289	-0.144	-0.154
0.278	-0.163	-0.442	-0.057	0.359	-0.302	0.383	0.009	0.111	0.293	-0.141	-0.152
0.283	-0.167	-0.451	-0.058	0.367	-0.309	0.378	0.003	0.107	0.288	-0.144	-0.157
0.26	-0.17	-0.431	-0.044	0.345	-0.3	0.383	0.004	0.111	0.291	-0.143	-0.157
0.259	-0.165	-0.425	-0.046	0.342	-0.295	0.386	0.009	0.115	0.297	-0.139	-0.152
0.273	-0.163	-0.436	-0.055	0.354	-0.299	0.379	0.008	0.112	0.294	-0.141	-0.153
0.284	-0.164	-0.45	-0.06	0.366	-0.307	0.369	0.002	0.107	0.291	-0.144	-0.157
0.287	-0.162	-0.451	-0.062	0.368	-0.306	0.369	0.004	0.11	0.293	-0.141	-0.153
0.281	-0.161	-0.444	-0.06	0.362	-0.302	0.369	0.005	0.107	0.293	-0.141	-0.155
0.29	-0.162	-0.453	-0.064	0.371	-0.307	0.366	0.001	0.104	0.289	-0.143	-0.159
0.301	-0.163	-0.465	-0.069	0.383	-0.314	0.365	-0.003	0.102	0.284	-0.148	-0.162
0.296	-0.168	-0.465	-0.064	0.38	-0.317	0.369	-0.002	0.102	0.282	-0.15	-0.162
0.292	-0.168	-0.462	-0.061	0.377	-0.315	0.37	0	0.102	0.28	-0.151	-0.164
0.269	-0.169	-0.439	-0.05	0.353	-0.304	0.375	0.002	0.103	0.282	-0.148	-0.16
0.242	-0.172	-0.415	-0.035	0.329	-0.294	0.384	0.009	0.11	0.291	-0.139	-0.151
0.257	-0.174	-0.431	-0.041	0.344	-0.303	0.378	0.005	0.108	0.29	-0.14	-0.152
0.266	-0.18	-0.447	-0.043	0.356	-0.314	0.373	0.002	0.105	0.289	-0.142	-0.158
0.264	-0.183	-0.448	-0.04	0.355	-0.316	0.374	0	0.104	0.29	-0.144	-0.161
0.279	-0.171	-0.451	-0.053	0.364	-0.311	0.373	-0.004	0.102	0.289	-0.148	-0.163
0.292	-0.159	-0.453	-0.067	0.372	-0.305	0.374	-0.004	0.102	0.289	-0.148	-0.162
0.289	-0.171	-0.46	-0.059	0.374	-0.316	0.375	-0.004	0.102	0.289	-0.146	-0.159
0.29	-0.172	-0.465	-0.059	0.377	-0.319	0.377	-0.002	0.102	0.287	-0.147	-0.158
0.292	-0.168	-0.461	-0.061	0.377	-0.315	0.376	-0.004	0.102	0.286	-0.146	-0.157
0.296	-0.172	-0.469	-0.062	0.383	-0.321	0.372	-0.008	0.098	0.281	-0.149	-0.161
0.277	-0.171	-0.449	-0.052	0.362	-0.31	0.379	-0.001	0.103	0.285	-0.146	-0.16
0.25	-0.172	-0.422	-0.039	0.336	-0.297	0.39	0.009	0.112	0.294	-0.138	-0.148
0.254	-0.17	-0.424	-0.042	0.339	-0.297	0.388	0.006	0.108	0.291	-0.141	-0.148
0.266	-0.167	-0.433	-0.049	0.349	-0.3	0.382	0.003	0.104	0.287	-0.145	-0.154
0.282	-0.167	-0.45	-0.057	0.365	-0.308	0.38	0.001	0.103	0.285	-0.146	-0.157
0.27	-0.173	-0.444	-0.048	0.356	-0.308	0.387	0.006	0.11	0.29	-0.141	-0.153
0.262	-0.182	-0.445	-0.039	0.353	-0.314	0.383	0.005	0.107	0.29	-0.14	-0.153
0.274	-0.181	-0.457	-0.045	0.364	-0.319	0.378	-0.002	0.102	0.285	-0.144	-0.158
0.28	-0.171	-0.451	-0.054	0.365	-0.311	0.383	0.001	0.105	0.29	-0.141	-0.154
0.285	-0.173	-0.46	-0.056	0.372	-0.317	0.375	-0.013	0.095	0.285	-0.146	-0.158
0.271	-0.175	-0.448	-0.048	0.359	-0.311	0.38	-0.013	0.096	0.288	-0.145	-0.157
0.268	-0.168	-0.436	-0.05	0.352	-0.302	0.386	-0.003	0.104	0.296	-0.139	-0.15
0.271	-0.169	-0.441	-0.051	0.355	-0.304	0.377	-0.008	0.1	0.289	-0.144	-0.157
0.267	-0.171	-0.439	-0.048	0.352	-0.305	0.373	-0.009	0.096	0.285	-0.147	-0.16
0.262	-0.182	-0.445	-0.039	0.353	-0.314	0.37	-0.01	0.094	0.285	-0.148	-0.161
0.266	-0.18	-0.448	-0.043	0.356	-0.314	0.37	-0.009	0.093	0.284	-0.149	-0.162
0.272	-0.166	-0.439	-0.052	0.354	-0.302	0.382	-0.002	0.1	0.289	-0.143	-0.156
0.258	-0.169	-0.427	-0.043	0.342	-0.298	0.387	0.003	0.103	0.292	-0.14	-0.152
0.256	-0.178	-0.435	-0.038	0.345	-0.307	0.384	-0.001	0.099	0.289	-0.141	-0.153
0.259	-0.186	-0.446	-0.036	0.352	-0.317	0.379	-0.005	0.092	0.284	-0.146	-0.157
0.261	-0.185	-0.447	-0.037	0.353	-0.316	0.377	-0.006	0.088	0.281	-0.147	-0.159
0.262	-0.185	-0.448	-0.037	0.354	-0.317	0.377	-0.006	0.089	0.284	-0.146	-0.161
0.268	-0.18	-0.449	-0.043	0.358	-0.315	0.378	-0.006	0.092	0.283	-0.145	-0.159
0.278	-0.176	-0.456	-0.051	0.366	-0.317	0.377	-0.007	0.09	0.283	-0.144	-0.158
0.277	-0.181	-0.46	-0.048	0.368	-0.321	0.376	-0.011	0.086	0.281	-0.147	-0.161
0.264	-0.183	-0.448	-0.04	0.355	-0.316	0.379	-0.011	0.085	0.28	-0.15	-0.163
0.264	-0.18	-0.445	-0.041	0.354	-0.313	0.383	-0.009	0.086	0.283	-0.147	-0.163
0.276	-0.177	-0.455	-0.049	0.365	-0.316	0.382	-0.011	0.083	0.279	-0.15	-0.165
0.283	-0.173	-0.458	-0.054	0.37	-0.316	0.381	-0.013	0.081	0.277	-0.15	-0.166
0.273	-0.175	-0.449	-0.048	0.36	-0.312	0.382	-0.013	0.083	0.276	-0.15	-0.165
0.258	-0.184	-0.443	-0.036	0.349	-0.314	0.376	-0.015	0.079	0.271	-0.155	-0.167
0.253	-0.188	-0.442	-0.032	0.346	-0.315	0.374	-0.011	0.083	0.275	-0.15	-0.162
0.248	-0.184	-0.433	-0.032	0.341	-0.309	0.379	-0.009	0.086	0.276	-0.151	-0.162
0.262	-0.178	-0.441	-0.042	0.351	-0.31	0.373	-0.012	0.083	0.27	-0.158	-0.168
0.285	-0.172	-0.457	-0.056	0.37	-0.315	0.368	-0.013	0.082	0.267	-0.158	-0.167
0.293	-0.168	-0.462	-0.062	0.378	-0.316	0.372	-0.009	0.083	0.267	-0.158	-0.165
0.292	-0.159	-0.453	-0.066	0.372	-0.306	0.377	-0.005	0.086	0.269	-0.158	-0.166
0.296	-0.154	-0.451	-0.07	0.373	-0.303	0.372	-0.008	0.085	0.267	-0.162	-0.171
0.278	-0.163	-0.442	-0.057	0.359	-0.302	0.369	-0.009	0.086	0.269	-0.161	-0.172
0.255	-0.165	-0.42	-0.044	0.338	-0.293	0.377	-0.003	0.093	0.275	-0.154	-0.167
0.247	-0.165	-0.413	-0.041	0.33	-0.289	0.384	0.002	0.099	0.283	-0.147	-0.159
0.255	-0.16	-0.416	-0.047	0.335	-0.288	0.38	0.001	0.098	0.284	-0.146	-0.159
0.272	-0.153	-0.426	-0.059	0.348	-0.29	0.377	-0.001	0.097	0.284	-0.148	-0.163
0.251	-0.16	-0.411	-0.045	0.331	-0.286	0.383	0.002	0.101	0.289	-0.144	-0.162
0.243	-0.162	-0.406	-0.04	0.325	-0.284	0.383	0.001	0.102	0.289	-0.144	-0.164
0.261	-0.159	-0.42	-0.051	0.34	-0.289	0.38	-0.003	0.097	0.285	-0.146	-0.163
0.271	-0.149	-0.42	-0.06	0.345	-0.285	0.378	-0.009	0.089	0.282	-0.147	-0.164
0.28	-0.136	-0.416	-0.072	0.348	-0.276	0.378	-0.013	0.09	0.285	-0.146	-0.164
0.271	-0.134	-0.405	-0.069	0.338	-0.27	0.381	-0.011	0.095	0.291	-0.141	-0.162
0.254	-0.139	-0.394	-0.057	0.323	-0.266	0.386	-0.009	0.097	0.292	-0.141	-0.163
0.249	-0.144	-0.394	-0.052	0.322	-0.269	0.388	-0.007	0.101	0.293	-0.14	-0.163
0.267	-0.138	-0.406	-0.065	0.336	-0.272	0.386	-0.009	0.103	0.295	-0.137	-0.158
0.278	-0.134	-0.412	-0.072	0.345	-0.273	0.386	-0.009	0.104	0.296	-0.135	-0.157
0.277	-0.137	-0.414	-0.07	0.345	-0.276	0.385	-0.007	0.103	0.296	-0.136	-0.158
0.279	-0.134	-0.413	-0.072	0.345	-0.273	0.382	-0.009	0.102	0.294	-0.139	-0.161
0.281	-0.127	-0.408	-0.077	0.344	-0.268	0.385	-0.006	0.105	0.296	-0.138	-0.16
0.284	-0.123	-0.407	-0.081	0.345	-0.265	0.389	-0.002	0.111	0.299	-0.135	-0.157
0.285	-0.122	-0.407	-0.081	0.345	-0.265	0.388	0.003	0.114	0.301	-0.134	-0.154
0.29	-0.117	-0.406	-0.086	0.348	-0.262	0.386	0.005	0.118	0.304	-0.129	-0.151
0.286	-0.117	-0.403	-0.085	0.344	-0.26	0.385	0.003	0.117	0.302	-0.131	-0.154
0.288	-0.119	-0.408	-0.084	0.348	-0.264	0.383	0.001	0.115	0.299	-0.134	-0.158
0.303	-0.114	-0.417	-0.095	0.36	-0.266	0.384	0.001	0.112	0.297	-0.134	-0.157
0.302	-0.111	-0.414	-0.096	0.358	-0.263	0.387	0.003	0.111	0.297	-0.136	-0.157
0.284	-0.112	-0.397	-0.086	0.341	-0.255	0.392	0.006	0.117	0.3	-0.135	-0.158
0.276	-0.109	-0.385	-0.083	0.33	-0.246	0.393	0.011	0.121	0.306	-0.134	-0.157
0.273	-0.109	-0.382	-0.082	0.327	-0.245	0.395	0.013	0.124	0.31	-0.128	-0.153
0.264	-0.1	-0.363	-0.082	0.314	-0.232	0.397	0.011	0.124	0.31	-0.126	-0.151
0.272	-0.08	-0.351	-0.096	0.311	-0.215	0.399	0.014	0.129	0.315	-0.121	-0.147
0.288	-0.064	-0.352	-0.112	0.32	-0.208	0.401	0.015	0.131	0.32	-0.117	-0.144
0.289	-0.065	-0.354	-0.112	0.321	-0.209	0.393	0.009	0.126	0.316	-0.121	-0.147
0.292	-0.068	-0.361	-0.112	0.327	-0.214	0.385	0.003	0.121	0.307	-0.126	-0.15
0.302	-0.062	-0.365	-0.12	0.334	-0.213	0.38	0.001	0.12	0.308	-0.125	-0.151
0.295	-0.065	-0.36	-0.115	0.328	-0.213	0.379	-0.001	0.123	0.311	-0.123	-0.15
0.29	-0.064	-0.354	-0.113	0.323	-0.209	0.371	-0.005	0.121	0.311	-0.124	-0.151
0.295	-0.065	-0.36	-0.115	0.328	-0.212	0.358	-0.012	0.118	0.31	-0.126	-0.152
0.299	-0.072	-0.372	-0.114	0.336	-0.223	0.341	-0.021	0.11	0.306	-0.127	-0.15
0.277	-0.086	-0.363	-0.096	0.32	-0.225	0.329	-0.022	0.106	0.304	-0.127	-0.149
0.261	-0.092	-0.353	-0.084	0.306	-0.223	0.333	-0.022	0.107	0.305	-0.127	-0.147
0.277	-0.085	-0.361	-0.096	0.319	-0.223	0.339	-0.025	0.103	0.299	-0.131	-0.15
0.287	-0.093	-0.382	-0.097	0.334	-0.237	0.342	-0.025	0.1	0.297	-0.132	-0.151
0.293	-0.105	-0.4	-0.094	0.346	-0.253	0.339	-0.028	0.095	0.294	-0.133	-0.151
0.294	-0.105	-0.4	-0.095	0.347	-0.253	0.336	-0.029	0.095	0.291	-0.133	-0.151
0.285	-0.108	-0.395	-0.088	0.34	-0.252	0.336	-0.025	0.097	0.292	-0.129	-0.148
0.27	-0.115	-0.385	-0.077	0.327	-0.25	0.335	-0.026	0.096	0.292	-0.128	-0.146
0.275	-0.115	-0.39	-0.08	0.333	-0.253	0.33	-0.031	0.095	0.294	-0.129	-0.147
0.288	-0.111	-0.399	-0.089	0.344	-0.255	0.328	-0.032	0.096	0.296	-0.129	-0.148
0.279	-0.108	-0.387	-0.085	0.333	-0.247	0.338	-0.025	0.103	0.301	-0.124	-0.144
0.274	-0.108	-0.384	-0.083	0.329	-0.246	0.339	-0.023	0.106	0.303	-0.124	-0.144
0.288	-0.102	-0.391	-0.093	0.339	-0.246	0.327	-0.032	0.1	0.301	-0.127	-0.145
0.293	-0.085	-0.379	-0.104	0.336	-0.232	0.331	-0.028	0.104	0.306	-0.12	-0.139
0.303	-0.078	-0.382	-0.113	0.342	-0.23	0.339	-0.02	0.114	0.316	-0.114	-0.133
0.321	-0.077	-0.399	-0.121	0.359	-0.237	0.335	-0.017	0.114	0.316	-0.108	-0.128
0.325	-0.076	-0.402	-0.123	0.363	-0.239	0.334	-0.016	0.114	0.315	-0.109	-0.127
0.327	-0.084	-0.411	-0.121	0.369	-0.248	0.331	-0.021	0.106	0.308	-0.116	-0.133
0.322	-0.094	-0.416	-0.114	0.368	-0.255	0.332	-0.021	0.104	0.305	-0.118	-0.136
0.318	-0.102	-0.419	-0.108	0.368	-0.261	0.338	-0.015	0.111	0.311	-0.115	-0.136
0.32	-0.103	-0.424	-0.108	0.372	-0.264	0.335	-0.017	0.111	0.311	-0.115	-0.136
0.327	-0.105	-0.432	-0.111	0.38	-0.269	0.328	-0.025	0.102	0.304	-0.121	-0.139
0.317	-0.104	-0.421	-0.106	0.368	-0.263	0.329	-0.031	0.097	0.301	-0.121	-0.139
0.303	-0.092	-0.396	-0.105	0.349	-0.244	0.342	-0.022	0.108	0.308	-0.113	-0.133
0.308	-0.094	-0.404	-0.107	0.356	-0.248	0.344	-0.017	0.108	0.306	-0.115	-0.136
0.323	-0.094	-0.417	-0.114	0.369	-0.256	0.347	-0.008	0.112	0.31	-0.113	-0.134
0.348	-0.086	-0.435	-0.131	0.392	-0.261	0.358	0.009	0.126	0.322	-0.104	-0.127
0.35	-0.092	-0.444	-0.128	0.397	-0.268	0.36	0.013	0.13	0.325	-0.102	-0.124
0.341	-0.102	-0.443	-0.119	0.392	-0.272	0.362	0.015	0.131	0.326	-0.098	-0.12
0.333	-0.107	-0.441	-0.112	0.387	-0.274	0.363	0.018	0.135	0.33	-0.093	-0.118
0.318	-0.12	-0.438	-0.099	0.378	-0.28	0.354	0.013	0.13	0.326	-0.099	-0.121
0.33	-0.118	-0.448	-0.105	0.389	-0.283	0.347	0.009	0.125	0.322	-0.102	-0.122
0.333	-0.107	-0.441	-0.113	0.387	-0.274	0.353	0.012	0.131	0.329	-0.096	-0.116
0.324	-0.116	-0.44	-0.103	0.382	-0.278	0.35	0.002	0.122	0.321	-0.102	-0.118
0.334	-0.106	-0.441	-0.114	0.388	-0.274	0.35	-0.005	0.117	0.316	-0.104	-0.12
0.331	-0.107	-0.439	-0.112	0.385	-0.273	0.348	-0.013	0.111	0.312	-0.108	-0.122
0.333	-0.119	-0.452	-0.106	0.393	-0.285	0.344	-0.029	0.1	0.304	-0.113	-0.126
0.329	-0.12	-0.45	-0.104	0.389	-0.285	0.344	-0.028	0.1	0.307	-0.106	-0.119
0.321	-0.127	-0.448	-0.097	0.384	-0.287	0.338	-0.029	0.097	0.304	-0.107	-0.119
0.328	-0.129	-0.456	-0.099	0.392	-0.292	0.33	-0.033	0.091	0.298	-0.109	-0.121
0.326	-0.133	-0.459	-0.096	0.392	-0.296	0.326	-0.03	0.091	0.297	-0.111	-0.12
0.322	-0.144	-0.466	-0.088	0.394	-0.305	0.325	-0.031	0.087	0.292	-0.114	-0.121
0.314	-0.155	-0.47	-0.079	0.392	-0.313	0.326	-0.029	0.085	0.289	-0.116	-0.121
0.315	-0.153	-0.469	-0.08	0.392	-0.311	0.33	-0.026	0.085	0.286	-0.117	-0.122
0.314	-0.149	-0.464	-0.082	0.389	-0.307	0.326	-0.032	0.078	0.282	-0.124	-0.126
0.306	-0.157	-0.464	-0.074	0.385	-0.31	0.325	-0.035	0.071	0.277	-0.13	-0.133
0.306	-0.159	-0.466	-0.073	0.386	-0.312	0.327	-0.036	0.071	0.274	-0.133	-0.137
0.303	-0.162	-0.466	-0.07	0.385	-0.314	0.328	-0.032	0.074	0.276	-0.131	-0.135
0.299	-0.17	-0.469	-0.064	0.384	-0.32	0.333	-0.029	0.077	0.278	-0.131	-0.135
0.293	-0.173	-0.468	-0.059	0.381	-0.321	0.339	-0.03	0.075	0.274	-0.134	-0.137
0.294	-0.175	-0.471	-0.059	0.383	-0.324	0.34	-0.032	0.071	0.272	-0.137	-0.139
0.304	-0.179	-0.484	-0.062	0.394	-0.332	0.338	-0.03	0.071	0.275	-0.135	-0.138
0.312	-0.183	-0.496	-0.064	0.404	-0.34	0.337	-0.033	0.068	0.271	-0.138	-0.143
0.309	-0.183	-0.493	-0.062	0.401	-0.339	0.332	-0.039	0.062	0.264	-0.147	-0.152
0.293	-0.18	-0.475	-0.056	0.384	-0.328	0.338	-0.035	0.068	0.27	-0.142	-0.15
0.281	-0.184	-0.466	-0.048	0.373	-0.325	0.342	-0.036	0.066	0.268	-0.144	-0.153
0.283	-0.182	-0.467	-0.05	0.374	-0.325	0.343	-0.038	0.059	0.261	-0.149	-0.158
0.275	-0.193	-0.469	-0.041	0.371	-0.331	0.347	-0.041	0.057	0.257	-0.152	-0.16
0.265	-0.2	-0.466	-0.033	0.365	-0.333	0.344	-0.046	0.052	0.254	-0.158	-0.165
0.268	-0.194	-0.463	-0.036	0.364	-0.329	0.349	-0.038	0.059	0.261	-0.153	-0.161
0.262	-0.195	-0.458	-0.033	0.359	-0.327	0.355	-0.035	0.066	0.266	-0.149	-0.156
0.254	-0.197	-0.452	-0.028	0.352	-0.325	0.361	-0.034	0.064	0.264	-0.15	-0.158
0.252	-0.207	-0.46	-0.022	0.355	-0.334	0.364	-0.035	0.061	0.259	-0.153	-0.162
0.254	-0.212	-0.467	-0.021	0.36	-0.34	0.361	-0.037	0.058	0.255	-0.159	-0.167
0.256	-0.216	-0.473	-0.019	0.364	-0.345	0.361	-0.037	0.051	0.246	-0.169	-0.176
0.251	-0.226	-0.478	-0.012	0.364	-0.351	0.359	-0.037	0.047	0.241	-0.174	-0.18
0.24	-0.235	-0.476	-0.002	0.358	-0.355	0.357	-0.039	0.045	0.239	-0.176	-0.183
0.248	-0.231	-0.479	-0.008	0.363	-0.354	0.361	-0.039	0.051	0.242	-0.172	-0.181
0.265	-0.213	-0.479	-0.025	0.372	-0.346	0.364	-0.035	0.056	0.247	-0.168	-0.175
0.263	-0.211	-0.474	-0.025	0.368	-0.343	0.361	-0.036	0.056	0.246	-0.17	-0.176
0.257	-0.213	-0.472	-0.021	0.364	-0.343	0.363	-0.035	0.057	0.246	-0.17	-0.176
0.255	-0.214	-0.469	-0.02	0.362	-0.342	0.366	-0.032	0.058	0.246	-0.17	-0.174
0.253	-0.217	-0.471	-0.018	0.361	-0.344	0.364	-0.032	0.058	0.244	-0.168	-0.171
0.258	-0.216	-0.474	-0.02	0.365	-0.345	0.364	-0.03	0.058	0.246	-0.167	-0.171
0.256	-0.217	-0.474	-0.019	0.365	-0.345	0.364	-0.032	0.058	0.243	-0.17	-0.174
0.264	-0.215	-0.48	-0.024	0.371	-0.347	0.365	-0.036	0.054	0.239	-0.171	-0.176
0.273	-0.214	-0.488	-0.029	0.381	-0.351	0.366	-0.037	0.05	0.236	-0.172	-0.178
0.275	-0.218	-0.493	-0.028	0.384	-0.355	0.362	-0.041	0.044	0.232	-0.176	-0.181
0.276	-0.222	-0.498	-0.026	0.387	-0.36	0.358	-0.044	0.043	0.231	-0.179	-0.182
0.277	-0.225	-0.502	-0.025	0.39	-0.363	0.357	-0.043	0.045	0.232	-0.178	-0.182
0.269	-0.225	-0.495	-0.021	0.382	-0.359	0.362	-0.04	0.051	0.235	-0.175	-0.181
0.26	-0.226	-0.486	-0.017	0.373	-0.355	0.371	-0.034	0.058	0.242	-0.169	-0.176
0.271	-0.225	-0.497	-0.022	0.384	-0.36	0.365	-0.041	0.051	0.239	-0.172	-0.177
0.258	-0.224	-0.482	-0.016	0.369	-0.352	0.368	-0.041	0.052	0.242	-0.168	-0.173
0.229	-0.228	-0.458	0	0.343	-0.343	0.377	-0.032	0.061	0.251	-0.162	-0.166
0.232	-0.229	-0.461	-0.001	0.346	-0.345	0.371	-0.033	0.059	0.251	-0.165	-0.17
0.253	-0.22	-0.473	-0.016	0.362	-0.346	0.373	-0.03	0.061	0.249	-0.163	-0.17
0.246	-0.225	-0.472	-0.011	0.359	-0.348	0.375	-0.029	0.062	0.252	-0.162	-0.165
0.234	-0.229	-0.464	-0.002	0.348	-0.346	0.372	-0.033	0.06	0.251	-0.163	-0.168
0.239	-0.225	-0.465	-0.007	0.351	-0.344	0.367	-0.038	0.053	0.243	-0.169	-0.172
0.24	-0.216	-0.458	-0.012	0.349	-0.337	0.372	-0.034	0.056	0.249	-0.164	-0.166
0.248	-0.205	-0.455	-0.021	0.351	-0.331	0.38	-0.028	0.061	0.254	-0.158	-0.162
0.252	-0.212	-0.465	-0.019	0.358	-0.339	0.376	-0.032	0.056	0.246	-0.166	-0.169
0.246	-0.222	-0.469	-0.012	0.357	-0.345	0.374	-0.035	0.054	0.244	-0.172	-0.174
0.249	-0.222	-0.471	-0.013	0.36	-0.346	0.381	-0.03	0.058	0.245	-0.172	-0.174
0.254	-0.219	-0.473	-0.017	0.363	-0.346	0.383	-0.03	0.059	0.244	-0.171	-0.174
0.252	-0.22	-0.473	-0.015	0.362	-0.346	0.382	-0.032	0.058	0.243	-0.172	-0.176
0.256	-0.22	-0.475	-0.018	0.365	-0.347	0.383	-0.032	0.058	0.244	-0.172	-0.178
0.258	-0.223	-0.48	-0.017	0.369	-0.351	0.384	-0.032	0.062	0.246	-0.169	-0.176
0.253	-0.222	-0.475	-0.015	0.363	-0.348	0.386	-0.028	0.065	0.249	-0.169	-0.176
0.254	-0.218	-0.473	-0.018	0.363	-0.345	0.386	-0.033	0.061	0.246	-0.171	-0.177
0.258	-0.216	-0.474	-0.02	0.365	-0.345	0.38	-0.04	0.054	0.239	-0.176	-0.182
0.257	-0.214	-0.472	-0.021	0.364	-0.344	0.374	-0.043	0.049	0.235	-0.18	-0.189
0.254	-0.218	-0.472	-0.018	0.362	-0.345	0.372	-0.041	0.052	0.236	-0.176	-0.185
0.244	-0.222	-0.467	-0.011	0.355	-0.344	0.374	-0.036	0.056	0.24	-0.172	-0.179
0.234	-0.224	-0.46	-0.004	0.347	-0.342	0.377	-0.037	0.057	0.242	-0.171	-0.176
0.23	-0.223	-0.454	-0.004	0.342	-0.338	0.38	-0.035	0.056	0.246	-0.17	-0.174
0.239	-0.22	-0.46	-0.009	0.349	-0.34	0.381	-0.034	0.058	0.247	-0.17	-0.173
0.241	-0.216	-0.458	-0.012	0.349	-0.338	0.382	-0.033	0.06	0.248	-0.168	-0.174
0.234	-0.218	-0.454	-0.008	0.344	-0.336	0.387	-0.029	0.064	0.252	-0.168	-0.173
0.239	-0.226	-0.467	-0.006	0.353	-0.346	0.386	-0.029	0.063	0.252	-0.169	-0.174
0.243	-0.229	-0.472	-0.006	0.357	-0.35	0.379	-0.037	0.057	0.244	-0.174	-0.181
0.234	-0.234	-0.469	0.001	0.351	-0.351	0.374	-0.043	0.051	0.24	-0.177	-0.183
0.245	-0.217	-0.464	-0.013	0.354	-0.341	0.385	-0.033	0.062	0.249	-0.167	-0.173
0.263	-0.203	-0.467	-0.029	0.364	-0.336	0.392	-0.025	0.07	0.255	-0.164	-0.172
0.257	-0.22	-0.477	-0.018	0.367	-0.348	0.388	-0.025	0.07	0.248	-0.171	-0.179
0.247	-0.229	-0.477	-0.009	0.361	-0.353	0.394	-0.01	0.076	0.247	-0.173	-0.182
0.246	-0.235	-0.482	-0.004	0.364	-0.359	0.403	0.009	0.084	0.248	-0.174	-0.183
0.255	-0.248	-0.504	-0.003	0.379	-0.376	0.413	0.035	0.097	0.247	-0.175	-0.185
0.25	-0.261	-0.512	0.006	0.381	-0.386	0.437	0.072	0.117	0.249	-0.178	-0.187
0.242	-0.269	-0.511	0.014	0.376	-0.39	0.462	0.111	0.143	0.254	-0.182	-0.192
0.242	-0.272	-0.515	0.015	0.379	-0.393	0.488	0.155	0.177	0.262	-0.183	-0.197
0.243	-0.277	-0.521	0.018	0.382	-0.399	0.512	0.189	0.203	0.268	-0.185	-0.2
0.246	-0.283	-0.531	0.018	0.389	-0.407	0.53	0.218	0.228	0.273	-0.189	-0.206
0.228	-0.28	-0.509	0.026	0.368	-0.395	0.556	0.254	0.262	0.29	-0.182	-0.203
0.216	-0.27	-0.487	0.028	0.351	-0.379	0.565	0.261	0.275	0.296	-0.184	-0.206
0.227	-0.264	-0.491	0.019	0.358	-0.377	0.568	0.252	0.274	0.29	-0.204	-0.229
0.216	-0.247	-0.464	0.016	0.34	-0.355	0.572	0.241	0.271	0.288	-0.216	-0.241
0.206	-0.22	-0.427	0.007	0.317	-0.324	0.572	0.234	0.277	0.299	-0.213	-0.243
0.207	-0.198	-0.406	-0.004	0.306	-0.302	0.578	0.24	0.299	0.32	-0.204	-0.241
0.208	-0.182	-0.392	-0.012	0.299	-0.287	0.588	0.261	0.332	0.345	-0.192	-0.236
0.221	-0.158	-0.379	-0.031	0.299	-0.269	0.598	0.285	0.377	0.387	-0.169	-0.227
0.232	-0.119	-0.351	-0.056	0.291	-0.235	0.6	0.3	0.42	0.436	-0.141	-0.216
0.23	-0.088	-0.318	-0.07	0.274	-0.203	0.602	0.319	0.467	0.487	-0.111	-0.202
0.241	-0.051	-0.292	-0.095	0.267	-0.172	0.597	0.34	0.522	0.546	-0.069	-0.177
0.27	-0.007	-0.278	-0.131	0.274	-0.142	0.579	0.363	0.595	0.632	-0.003	-0.137
0.292	0.026	-0.267	-0.159	0.28	-0.12	0.578	0.409	0.677	0.723	0.068	-0.092
0.322	0.068	-0.255	-0.194	0.288	-0.094	0.584	0.474	0.792	0.836	0.152	-0.042
0.356	0.121	-0.236	-0.238	0.296	-0.058	0.578	0.527	0.91	0.963	0.246	0.018
0.39	0.162	-0.229	-0.276	0.309	-0.034	0.585	0.59	1.02	1.061	0.319	0.064
0.417	0.192	-0.227	-0.304	0.322	-0.017	0.597	0.65	1.125	1.155	0.387	0.104
0.446	0.237	-0.209	-0.341	0.328	0.014	0.597	0.676	1.202	1.248	0.458	0.146
0.448	0.302	-0.146	-0.374	0.297	0.078	0.583	0.672	1.26	1.347	0.544	0.203
0.44	0.359	-0.081	-0.399	0.261	0.139	0.554	0.619	1.268	1.437	0.63	0.265
0.469	0.398	-0.072	-0.432	0.27	0.163	0.527	0.569	1.277	1.516	0.701	0.314
0.492	0.428	-0.066	-0.46	0.279	0.181	0.507	0.536	1.288	1.577	0.756	0.349
0.514	0.469	-0.047	-0.491	0.281	0.211	0.468	0.48	1.282	1.636	0.815	0.388
0.533	0.513	-0.021	-0.523	0.278	0.246	0.403	0.401	1.275	1.713	0.889	0.438
0.552	0.536	-0.017	-0.543	0.284	0.26	0.336	0.304	1.242	1.764	0.948	0.478
0.557	0.556	-0.002	-0.556	0.28	0.277	0.27	0.194	1.188	1.792	0.979	0.497
0.532	0.584	0.05	-0.557	0.241	0.317	0.201	0.071	1.136	1.821	1.006	0.515
0.519	0.611	0.091	-0.565	0.214	0.351	0.118	-0.051	1.093	1.875	1.058	0.551
0.534	0.62	0.085	-0.577	0.225	0.352	0.032	-0.169	1.044	1.927	1.117	0.591
0.54	0.659	0.118	-0.6	0.211	0.389	-0.07	-0.32	0.982	1.963	1.146	0.607
0.515	0.72	0.204	-0.617	0.155	0.462	-0.199	-0.541	0.865	1.976	1.157	0.611
0.484	0.765	0.28	-0.624	0.102	0.522	-0.331	-0.788	0.726	1.986	1.17	0.616
0.454	0.83	0.375	-0.641	0.04	0.602	-0.444	-1.027	0.599	1.992	1.171	0.605
0.419	0.883	0.463	-0.65	-0.021	0.673	-0.516	-1.22	0.486	1.987	1.162	0.592
0.399	0.88	0.48	-0.639	-0.041	0.68	-0.544	-1.316	0.425	1.969	1.143	0.586
0.394	0.781	0.387	-0.587	0.004	0.584	-0.536	-1.332	0.406	1.923	1.107	0.573
0.393	0.698	0.304	-0.544	0.044	0.501	-0.54	-1.338	0.387	1.855	1.054	0.551
0.385	0.655	0.27	-0.519	0.058	0.462	-0.568	-1.373	0.303	1.72	0.971	0.517
0.371	0.569	0.198	-0.469	0.086	0.383	-0.551	-1.389	0.202	1.542	0.857	0.466
0.359	0.435	0.075	-0.396	0.141	0.255	-0.482	-1.345	0.151	1.378	0.735	0.409
0.32	0.287	-0.033	-0.302	0.176	0.128	-0.406	-1.289	0.087	1.188	0.596	0.342
0.277	0.191	-0.086	-0.233	0.181	0.052	-0.365	-1.287	-0.069	0.93	0.424	0.258
0.232	0.094	-0.138	-0.163	0.185	-0.022	-0.339	-1.298	-0.239	0.675	0.256	0.171
0.186	0.012	-0.175	-0.099	0.18	-0.082	-0.284	-1.292	-0.394	0.431	0.098	0.092
0.161	-0.049	-0.21	-0.056	0.185	-0.13	-0.235	-1.336	-0.657	0.118	-0.072	0.011
0.126	-0.128	-0.254	0.002	0.19	-0.191	-0.215	-1.417	-0.965	-0.194	-0.227	-0.068
0.102	-0.197	-0.299	0.049	0.201	-0.249	-0.206	-1.463	-1.185	-0.417	-0.345	-0.126
0.087	-0.27	-0.357	0.092	0.222	-0.314	-0.178	-1.455	-1.292	-0.528	-0.421	-0.169
0.085	-0.337	-0.422	0.127	0.254	-0.38	-0.146	-1.409	-1.283	-0.544	-0.455	-0.195
0.086	-0.378	-0.464	0.146	0.275	-0.42	-0.129	-1.359	-1.222	-0.521	-0.472	-0.214
0.064	-0.39	-0.454	0.164	0.259	-0.421	-0.119	-1.304	-1.153	-0.48	-0.468	-0.222
0.066	-0.401	-0.469	0.168	0.267	-0.434	-0.114	-1.236	-1.066	-0.429	-0.456	-0.227
0.086	-0.419	-0.507	0.167	0.296	-0.463	-0.096	-1.155	-0.972	-0.372	-0.443	-0.23
0.113	-0.41	-0.523	0.149	0.318	-0.467	-0.054	-1.044	-0.842	-0.281	-0.399	-0.212
0.152	-0.379	-0.531	0.114	0.341	-0.455	-0.002	-0.906	-0.682	-0.169	-0.337	-0.182
0.181	-0.354	-0.537	0.087	0.359	-0.446	0.043	-0.772	-0.541	-0.071	-0.283	-0.158
0.2	-0.343	-0.543	0.071	0.371	-0.443	0.097	-0.655	-0.421	0.007	-0.245	-0.145
0.205	-0.312	-0.518	0.054	0.361	-0.415	0.155	-0.544	-0.305	0.088	-0.2	-0.128
0.203	-0.281	-0.485	0.04	0.344	-0.383	0.202	-0.455	-0.211	0.15	-0.172	-0.121
0.21	-0.273	-0.483	0.032	0.346	-0.378	0.242	-0.387	-0.143	0.19	-0.164	-0.131
0.216	-0.262	-0.479	0.023	0.347	-0.37	0.277	-0.336	-0.09	0.224	-0.154	-0.139
0.226	-0.246	-0.472	0.011	0.348	-0.358	0.303	-0.299	-0.052	0.245	-0.149	-0.144
0.216	-0.24	-0.457	0.013	0.336	-0.348	0.328	-0.257	-0.014	0.266	-0.14	-0.144
0.187	-0.241	-0.429	0.028	0.308	-0.336	0.349	-0.213	0.021	0.284	-0.133	-0.144
0.198	-0.224	-0.422	0.013	0.309	-0.323	0.358	-0.174	0.051	0.3	-0.125	-0.141
0.23	-0.201	-0.431	-0.013	0.331	-0.317	0.367	-0.144	0.07	0.307	-0.12	-0.138
0.239	-0.204	-0.445	-0.018	0.342	-0.325	0.378	-0.12	0.086	0.309	-0.119	-0.137
0.251	-0.211	-0.464	-0.019	0.357	-0.338	0.39	-0.09	0.107	0.316	-0.115	-0.134
0.255	-0.221	-0.476	-0.017	0.365	-0.348	0.396	-0.066	0.123	0.32	-0.114	-0.137
0.257	-0.214	-0.472	-0.021	0.364	-0.343	0.405	-0.039	0.14	0.326	-0.111	-0.135
0.283	-0.193	-0.477	-0.045	0.38	-0.335	0.41	-0.023	0.148	0.329	-0.109	-0.135
0.292	-0.193	-0.485	-0.049	0.389	-0.339	0.404	-0.024	0.145	0.324	-0.116	-0.141
0.289	-0.194	-0.484	-0.047	0.386	-0.339	0.405	-0.015	0.143	0.319	-0.121	-0.145
0.274	-0.194	-0.469	-0.04	0.371	-0.331	0.417	-0.004	0.15	0.32	-0.119	-0.142
0.232	-0.2	-0.432	-0.015	0.332	-0.317	0.436	0.011	0.163	0.327	-0.112	-0.133
0.226	-0.202	-0.429	-0.011	0.328	-0.316	0.441	0.015	0.161	0.325	-0.116	-0.135
0.23	-0.203	-0.434	-0.013	0.332	-0.319	0.436	0.013	0.158	0.319	-0.121	-0.14
0.223	-0.205	-0.429	-0.008	0.326	-0.318	0.439	0.019	0.159	0.317	-0.123	-0.142
0.234	-0.205	-0.44	-0.014	0.337	-0.323	0.437	0.022	0.157	0.31	-0.129	-0.149
0.235	-0.203	-0.439	-0.016	0.337	-0.321	0.437	0.028	0.158	0.308	-0.133	-0.152
0.23	-0.211	-0.443	-0.009	0.336	-0.328	0.442	0.034	0.161	0.307	-0.133	-0.154
0.228	-0.216	-0.445	-0.005	0.336	-0.331	0.443	0.037	0.162	0.303	-0.136	-0.155
0.234	-0.207	-0.443	-0.013	0.339	-0.326	0.441	0.04	0.162	0.299	-0.139	-0.156
0.239	-0.206	-0.447	-0.015	0.343	-0.327	0.44	0.041	0.163	0.297	-0.14	-0.158
0.237	-0.208	-0.447	-0.013	0.342	-0.328	0.443	0.049	0.168	0.299	-0.14	-0.158
0.24	-0.212	-0.454	-0.013	0.346	-0.334	0.444	0.052	0.171	0.299	-0.142	-0.158
0.244	-0.21	-0.456	-0.017	0.349	-0.333	0.441	0.052	0.17	0.295	-0.145	-0.16
0.243	-0.21	-0.455	-0.016	0.349	-0.333	0.443	0.057	0.173	0.296	-0.143	-0.161
0.226	-0.221	-0.448	-0.002	0.337	-0.335	0.445	0.064	0.178	0.3	-0.142	-0.16
0.228	-0.207	-0.436	-0.01	0.332	-0.323	0.448	0.072	0.184	0.303	-0.139	-0.157
0.244	-0.199	-0.445	-0.022	0.344	-0.322	0.447	0.072	0.184	0.299	-0.143	-0.163
0.243	-0.211	-0.455	-0.015	0.349	-0.334	0.442	0.07	0.184	0.296	-0.148	-0.165
0.246	-0.219	-0.466	-0.013	0.355	-0.343	0.435	0.071	0.183	0.295	-0.149	-0.166
0.248	-0.218	-0.468	-0.014	0.357	-0.343	0.435	0.072	0.183	0.294	-0.151	-0.169
0.248	-0.214	-0.464	-0.017	0.356	-0.34	0.442	0.08	0.189	0.298	-0.148	-0.167
0.253	-0.209	-0.464	-0.021	0.358	-0.337	0.443	0.083	0.191	0.299	-0.146	-0.166
0.253	-0.208	-0.463	-0.022	0.358	-0.336	0.441	0.084	0.193	0.301	-0.144	-0.165
0.259	-0.212	-0.471	-0.022	0.364	-0.342	0.435	0.083	0.19	0.299	-0.147	-0.167
0.247	-0.212	-0.461	-0.017	0.354	-0.337	0.44	0.086	0.195	0.302	-0.145	-0.166
0.229	-0.212	-0.443	-0.008	0.336	-0.328	0.446	0.094	0.201	0.308	-0.142	-0.163
0.238	-0.21	-0.45	-0.013	0.344	-0.331	0.443	0.095	0.2	0.307	-0.143	-0.164
0.248	-0.211	-0.461	-0.018	0.354	-0.336	0.442	0.094	0.199	0.308	-0.142	-0.163
0.255	-0.21	-0.466	-0.021	0.36	-0.339	0.443	0.095	0.199	0.308	-0.142	-0.164
0.275	-0.212	-0.488	-0.03	0.381	-0.35	0.433	0.083	0.191	0.303	-0.147	-0.168
0.271	-0.22	-0.492	-0.025	0.381	-0.355	0.431	0.081	0.191	0.303	-0.145	-0.166
0.253	-0.225	-0.478	-0.013	0.365	-0.351	0.441	0.093	0.201	0.311	-0.139	-0.161
0.257	-0.224	-0.482	-0.017	0.369	-0.352	0.437	0.093	0.2	0.307	-0.144	-0.165
0.247	-0.218	-0.467	-0.014	0.357	-0.343	0.442	0.1	0.205	0.314	-0.138	-0.162
0.24	-0.216	-0.457	-0.011	0.348	-0.337	0.449	0.106	0.213	0.321	-0.134	-0.162
0.253	-0.211	-0.465	-0.021	0.358	-0.338	0.449	0.105	0.213	0.32	-0.134	-0.161
0.257	-0.212	-0.469	-0.022	0.363	-0.341	0.451	0.112	0.219	0.327	-0.127	-0.155
0.259	-0.209	-0.468	-0.025	0.363	-0.339	0.449	0.114	0.22	0.326	-0.13	-0.159
0.251	-0.204	-0.456	-0.022	0.353	-0.331	0.454	0.121	0.227	0.332	-0.124	-0.152
0.248	-0.207	-0.457	-0.02	0.352	-0.333	0.455	0.126	0.233	0.337	-0.122	-0.148
0.249	-0.216	-0.467	-0.017	0.357	-0.341	0.448	0.121	0.229	0.333	-0.128	-0.154
0.236	-0.233	-0.47	-0.002	0.353	-0.351	0.444	0.119	0.225	0.329	-0.132	-0.158
0.244	-0.228	-0.473	-0.008	0.358	-0.35	0.438	0.113	0.218	0.321	-0.136	-0.157
0.273	-0.207	-0.481	-0.032	0.377	-0.344	0.441	0.113	0.217	0.322	-0.135	-0.154
0.263	-0.209	-0.473	-0.026	0.368	-0.342	0.448	0.117	0.218	0.321	-0.135	-0.155
0.244	-0.219	-0.464	-0.012	0.353	-0.342	0.445	0.116	0.218	0.322	-0.134	-0.154
0.255	-0.22	-0.475	-0.017	0.364	-0.347	0.442	0.115	0.213	0.317	-0.136	-0.157
0.264	-0.217	-0.482	-0.022	0.373	-0.349	0.441	0.115	0.207	0.309	-0.142	-0.161
0.265	-0.216	-0.481	-0.024	0.372	-0.348	0.439	0.116	0.21	0.311	-0.139	-0.162
0.261	-0.221	-0.482	-0.019	0.371	-0.351	0.439	0.119	0.216	0.315	-0.136	-0.162
0.264	-0.219	-0.484	-0.022	0.374	-0.351	0.441	0.122	0.22	0.318	-0.135	-0.16
0.263	-0.213	-0.477	-0.025	0.37	-0.345	0.442	0.126	0.223	0.323	-0.132	-0.155
0.256	-0.214	-0.47	-0.021	0.362	-0.343	0.444	0.129	0.226	0.326	-0.13	-0.152
0.26	-0.213	-0.473	-0.023	0.366	-0.344	0.442	0.128	0.224	0.325	-0.131	-0.155
0.272	-0.211	-0.483	-0.03	0.377	-0.346	0.439	0.128	0.224	0.325	-0.13	-0.155
0.272	-0.208	-0.481	-0.031	0.376	-0.344	0.44	0.129	0.227	0.328	-0.128	-0.153
0.27	-0.204	-0.474	-0.032	0.371	-0.34	0.442	0.133	0.231	0.333	-0.124	-0.152
0.27	-0.206	-0.477	-0.032	0.373	-0.342	0.438	0.131	0.231	0.333	-0.126	-0.154
0.256	-0.217	-0.474	-0.018	0.364	-0.345	0.438	0.13	0.231	0.334	-0.126	-0.155
0.263	-0.208	-0.472	-0.027	0.367	-0.34	0.439	0.135	0.238	0.34	-0.12	-0.153
0.261	-0.202	-0.464	-0.029	0.361	-0.333	0.44	0.14	0.243	0.345	-0.117	-0.15
0.241	-0.213	-0.456	-0.013	0.348	-0.335	0.444	0.143	0.248	0.348	-0.115	-0.148
0.247	-0.216	-0.466	-0.015	0.356	-0.341	0.443	0.144	0.251	0.348	-0.113	-0.146
0.269	-0.214	-0.483	-0.026	0.376	-0.348	0.435	0.137	0.243	0.343	-0.118	-0.149
0.274	-0.211	-0.485	-0.03	0.379	-0.348	0.434	0.135	0.24	0.34	-0.12	-0.152
0.247	-0.221	-0.469	-0.013	0.358	-0.344	0.439	0.14	0.243	0.344	-0.117	-0.149
0.27	-0.211	-0.481	-0.029	0.375	-0.346	0.439	0.141	0.246	0.346	-0.115	-0.149
0.299	-0.201	-0.501	-0.049	0.4	-0.351	0.433	0.139	0.245	0.344	-0.117	-0.151
0.285	-0.208	-0.494	-0.038	0.39	-0.351	0.434	0.14	0.247	0.344	-0.116	-0.15
0.287	-0.205	-0.493	-0.041	0.39	-0.349	0.435	0.145	0.252	0.345	-0.114	-0.149
0.284	-0.206	-0.491	-0.038	0.388	-0.348	0.435	0.148	0.256	0.349	-0.112	-0.148
0.27	-0.204	-0.474	-0.032	0.371	-0.34	0.442	0.153	0.263	0.356	-0.105	-0.145
0.272	-0.2	-0.473	-0.035	0.372	-0.337	0.439	0.148	0.259	0.352	-0.107	-0.147
0.262	-0.207	-0.47	-0.026	0.366	-0.339	0.439	0.147	0.26	0.353	-0.105	-0.146
0.255	-0.205	-0.461	-0.025	0.358	-0.333	0.441	0.154	0.263	0.356	-0.105	-0.146
0.268	-0.199	-0.468	-0.034	0.367	-0.334	0.432	0.149	0.257	0.351	-0.113	-0.151
0.277	-0.198	-0.475	-0.038	0.376	-0.337	0.431	0.151	0.261	0.354	-0.11	-0.15
0.29	-0.197	-0.487	-0.046	0.389	-0.342	0.433	0.153	0.264	0.358	-0.106	-0.148
0.297	-0.2	-0.497	-0.048	0.397	-0.348	0.43	0.151	0.262	0.356	-0.109	-0.148
0.288	-0.198	-0.486	-0.044	0.387	-0.342	0.432	0.157	0.268	0.361	-0.108	-0.148
0.278	-0.199	-0.477	-0.039	0.377	-0.338	0.438	0.162	0.274	0.368	-0.102	-0.144
0.278	-0.195	-0.474	-0.041	0.376	-0.335	0.435	0.163	0.274	0.366	-0.103	-0.142
0.272	-0.191	-0.463	-0.04	0.366	-0.327	0.436	0.166	0.278	0.371	-0.098	-0.14
0.255	-0.198	-0.453	-0.028	0.353	-0.326	0.441	0.173	0.284	0.379	-0.092	-0.134
0.256	-0.201	-0.458	-0.027	0.356	-0.33	0.442	0.176	0.286	0.377	-0.096	-0.133
0.268	-0.195	-0.463	-0.036	0.365	-0.329	0.446	0.18	0.29	0.38	-0.093	-0.13
0.271	-0.194	-0.465	-0.038	0.367	-0.33	0.443	0.182	0.292	0.379	-0.094	-0.131
0.273	-0.192	-0.465	-0.04	0.368	-0.329	0.439	0.179	0.29	0.377	-0.096	-0.132
0.286	-0.186	-0.474	-0.05	0.38	-0.331	0.439	0.179	0.292	0.38	-0.093	-0.132
0.294	-0.189	-0.484	-0.052	0.39	-0.337	0.434	0.18	0.294	0.379	-0.095	-0.135
0.302	-0.191	-0.493	-0.056	0.398	-0.342	0.431	0.181	0.295	0.378	-0.096	-0.136
0.314	-0.189	-0.504	-0.062	0.408	-0.346	0.427	0.178	0.294	0.374	-0.098	-0.14
0.306	-0.193	-0.5	-0.057	0.403	-0.346	0.427	0.179	0.294	0.376	-0.098	-0.141
0.304	-0.19	-0.494	-0.057	0.399	-0.343	0.431	0.183	0.298	0.381	-0.095	-0.138
0.306	-0.182	-0.489	-0.062	0.398	-0.336	0.434	0.189	0.303	0.387	-0.088	-0.134
0.277	-0.191	-0.469	-0.042	0.372	-0.33	0.438	0.195	0.312	0.394	-0.081	-0.127
0.263	-0.193	-0.457	-0.035	0.359	-0.326	0.44	0.197	0.317	0.398	-0.077	-0.124
0.278	-0.176	-0.455	-0.05	0.366	-0.316	0.443	0.2	0.323	0.404	-0.07	-0.119
0.282	-0.172	-0.455	-0.055	0.368	-0.314	0.44	0.197	0.324	0.404	-0.07	-0.119
0.291	-0.172	-0.464	-0.059	0.377	-0.318	0.439	0.196	0.324	0.405	-0.069	-0.121
0.293	-0.169	-0.463	-0.061	0.378	-0.316	0.437	0.2	0.327	0.407	-0.066	-0.119
0.288	-0.169	-0.458	-0.059	0.373	-0.314	0.432	0.2	0.326	0.406	-0.068	-0.12
0.29	-0.173	-0.465	-0.058	0.377	-0.32	0.434	0.203	0.331	0.41	-0.065	-0.118
0.292	-0.174	-0.468	-0.059	0.38	-0.322	0.438	0.203	0.334	0.413	-0.062	-0.117
0.296	-0.17	-0.467	-0.062	0.381	-0.319	0.44	0.208	0.337	0.417	-0.059	-0.117
0.295	-0.175	-0.471	-0.06	0.383	-0.324	0.441	0.215	0.343	0.42	-0.056	-0.113
0.296	-0.177	-0.474	-0.059	0.385	-0.327	0.438	0.217	0.345	0.424	-0.053	-0.109
0.301	-0.173	-0.476	-0.064	0.389	-0.325	0.435	0.218	0.345	0.426	-0.054	-0.113
0.304	-0.17	-0.475	-0.067	0.39	-0.323	0.434	0.22	0.346	0.425	-0.058	-0.115
0.315	-0.167	-0.482	-0.073	0.398	-0.325	0.43	0.22	0.346	0.424	-0.059	-0.114
0.314	-0.168	-0.482	-0.072	0.398	-0.325	0.433	0.223	0.348	0.426	-0.058	-0.114
0.304	-0.168	-0.473	-0.068	0.389	-0.321	0.434	0.227	0.353	0.431	-0.054	-0.114
0.311	-0.163	-0.474	-0.074	0.393	-0.319	0.428	0.228	0.356	0.433	-0.053	-0.113
0.314	-0.164	-0.479	-0.074	0.397	-0.322	0.428	0.232	0.36	0.438	-0.05	-0.11
0.322	-0.165	-0.488	-0.079	0.405	-0.327	0.425	0.234	0.361	0.438	-0.05	-0.11
0.305	-0.174	-0.481	-0.065	0.393	-0.328	0.426	0.235	0.362	0.441	-0.049	-0.112
0.284	-0.174	-0.46	-0.054	0.371	-0.317	0.435	0.244	0.373	0.452	-0.042	-0.107
0.31	-0.152	-0.463	-0.079	0.387	-0.308	0.442	0.254	0.385	0.461	-0.033	-0.098
0.317	-0.151	-0.469	-0.082	0.393	-0.31	0.442	0.253	0.387	0.46	-0.03	-0.097
0.307	-0.165	-0.472	-0.071	0.39	-0.319	0.436	0.249	0.383	0.455	-0.036	-0.103
0.308	-0.166	-0.475	-0.07	0.392	-0.321	0.432	0.249	0.382	0.455	-0.04	-0.106
0.318	-0.161	-0.48	-0.077	0.399	-0.321	0.433	0.253	0.385	0.457	-0.037	-0.105
0.326	-0.166	-0.492	-0.079	0.408	-0.33	0.431	0.256	0.388	0.459	-0.036	-0.106
0.333	-0.168	-0.502	-0.082	0.417	-0.335	0.426	0.255	0.388	0.459	-0.037	-0.107
0.342	-0.158	-0.5	-0.092	0.421	-0.329	0.428	0.262	0.396	0.466	-0.03	-0.103
0.333	-0.15	-0.484	-0.091	0.408	-0.317	0.437	0.273	0.407	0.477	-0.022	-0.096
0.331	-0.146	-0.477	-0.091	0.404	-0.312	0.438	0.279	0.413	0.481	-0.018	-0.091
0.32	-0.152	-0.473	-0.084	0.397	-0.312	0.434	0.281	0.418	0.485	-0.014	-0.087
0.311	-0.157	-0.469	-0.076	0.39	-0.314	0.435	0.281	0.416	0.484	-0.015	-0.089
0.309	-0.15	-0.46	-0.08	0.385	-0.305	0.442	0.29	0.426	0.492	-0.006	-0.082
0.311	-0.145	-0.457	-0.083	0.384	-0.3	0.448	0.302	0.438	0.503	0.003	-0.073
0.317	-0.145	-0.462	-0.086	0.389	-0.303	0.442	0.301	0.436	0.502	-0.002	-0.079
0.318	-0.146	-0.465	-0.086	0.392	-0.306	0.439	0.303	0.44	0.504	-0.002	-0.079
0.319	-0.152	-0.471	-0.083	0.395	-0.312	0.434	0.303	0.441	0.503	-0.003	-0.08
0.324	-0.144	-0.469	-0.089	0.396	-0.306	0.433	0.305	0.441	0.504	-0.001	-0.081
0.339	-0.132	-0.471	-0.103	0.405	-0.301	0.442	0.315	0.45	0.513	0.006	-0.076
0.338	-0.136	-0.474	-0.101	0.406	-0.305	0.439	0.316	0.453	0.513	0.006	-0.076
0.344	-0.136	-0.479	-0.103	0.411	-0.307	0.435	0.318	0.457	0.516	0.009	-0.074
0.341	-0.135	-0.476	-0.102	0.408	-0.305	0.435	0.32	0.461	0.521	0.013	-0.072
0.326	-0.139	-0.465	-0.093	0.395	-0.301	0.434	0.325	0.466	0.523	0.015	-0.073
0.322	-0.144	-0.466	-0.088	0.393	-0.304	0.425	0.323	0.465	0.522	0.013	-0.075
0.351	-0.134	-0.485	-0.108	0.418	-0.309	0.422	0.325	0.468	0.527	0.017	-0.072
0.364	-0.12	-0.485	-0.121	0.424	-0.303	0.435	0.34	0.481	0.538	0.027	-0.064
0.343	-0.126	-0.469	-0.108	0.406	-0.298	0.436	0.345	0.484	0.54	0.028	-0.065
0.349	-0.126	-0.475	-0.112	0.412	-0.3	0.432	0.346	0.485	0.542	0.029	-0.065
0.346	-0.126	-0.472	-0.111	0.409	-0.298	0.432	0.349	0.487	0.544	0.029	-0.066
0.34	-0.124	-0.464	-0.107	0.402	-0.294	0.438	0.354	0.492	0.55	0.034	-0.064
0.34	-0.12	-0.461	-0.11	0.4	-0.29	0.441	0.362	0.499	0.559	0.043	-0.058
0.348	-0.118	-0.467	-0.115	0.407	-0.293	0.439	0.363	0.501	0.561	0.044	-0.058
0.366	-0.117	-0.484	-0.124	0.425	-0.3	0.434	0.361	0.498	0.558	0.042	-0.057
0.353	-0.118	-0.472	-0.117	0.412	-0.295	0.433	0.368	0.505	0.564	0.048	-0.052
0.352	-0.112	-0.466	-0.12	0.409	-0.288	0.433	0.373	0.512	0.571	0.054	-0.05
0.366	-0.105	-0.471	-0.13	0.418	-0.288	0.43	0.374	0.514	0.573	0.056	-0.047
0.357	-0.102	-0.461	-0.127	0.409	-0.281	0.436	0.386	0.527	0.586	0.068	-0.036
0.361	-0.102	-0.463	-0.129	0.412	-0.282	0.438	0.387	0.53	0.591	0.07	-0.035
0.37	-0.099	-0.469	-0.135	0.419	-0.284	0.435	0.379	0.528	0.589	0.068	-0.038
0.368	-0.101	-0.469	-0.133	0.418	-0.285	0.436	0.384	0.531	0.591	0.07	-0.039
0.372	-0.091	-0.464	-0.14	0.417	-0.278	0.44	0.392	0.539	0.597	0.074	-0.037
0.384	-0.078	-0.463	-0.152	0.423	-0.271	0.442	0.4	0.547	0.605	0.08	-0.032
0.38	-0.081	-0.461	-0.148	0.42	-0.271	0.441	0.406	0.55	0.608	0.084	-0.032
0.377	-0.083	-0.46	-0.146	0.418	-0.271	0.438	0.408	0.551	0.607	0.084	-0.03
0.382	-0.082	-0.464	-0.149	0.422	-0.273	0.435	0.407	0.549	0.606	0.082	-0.032
0.365	-0.082	-0.447	-0.141	0.406	-0.264	0.441	0.413	0.554	0.613	0.088	-0.026
0.365	-0.079	-0.445	-0.142	0.405	-0.262	0.44	0.416	0.55	0.61	0.084	-0.029
0.378	-0.075	-0.454	-0.15	0.416	-0.265	0.436	0.415	0.547	0.608	0.083	-0.028
0.379	-0.074	-0.454	-0.151	0.416	-0.264	0.439	0.421	0.557	0.62	0.095	-0.017
0.383	-0.071	-0.454	-0.155	0.418	-0.263	0.444	0.427	0.566	0.626	0.1	-0.014
0.382	-0.071	-0.454	-0.154	0.418	-0.263	0.442	0.429	0.567	0.626	0.1	-0.018
0.387	-0.069	-0.457	-0.159	0.421	-0.263	0.44	0.428	0.566	0.624	0.097	-0.022
0.385	-0.062	-0.448	-0.161	0.416	-0.255	0.442	0.432	0.571	0.631	0.101	-0.017
0.374	-0.059	-0.434	-0.157	0.404	-0.247	0.439	0.434	0.576	0.637	0.106	-0.014
0.384	-0.058	-0.442	-0.163	0.412	-0.25	0.436	0.434	0.578	0.639	0.108	-0.013
0.391	-0.058	-0.45	-0.166	0.42	-0.254	0.437	0.438	0.58	0.643	0.113	-0.009
0.392	-0.06	-0.453	-0.165	0.422	-0.257	0.434	0.435	0.576	0.637	0.111	-0.013
0.398	-0.052	-0.451	-0.172	0.424	-0.252	0.434	0.435	0.576	0.638	0.112	-0.011
0.402	-0.036	-0.44	-0.182	0.421	-0.238	0.44	0.444	0.585	0.649	0.121	-0.004
0.387	-0.041	-0.428	-0.172	0.407	-0.234	0.443	0.449	0.591	0.655	0.127	0.002
0.374	-0.043	-0.416	-0.165	0.395	-0.23	0.448	0.454	0.597	0.66	0.132	0.005
0.39	-0.035	-0.425	-0.177	0.408	-0.23	0.442	0.451	0.597	0.659	0.131	0.003
0.396	-0.034	-0.43	-0.18	0.413	-0.232	0.439	0.449	0.596	0.657	0.129	-0.001
0.389	-0.032	-0.421	-0.177	0.405	-0.227	0.444	0.455	0.601	0.664	0.132	0.001
0.395	-0.029	-0.424	-0.182	0.409	-0.227	0.442	0.454	0.602	0.667	0.134	0.003
0.402	-0.034	-0.436	-0.184	0.419	-0.235	0.434	0.449	0.597	0.661	0.132	-0.001
0.404	-0.029	-0.433	-0.186	0.418	-0.232	0.434	0.453	0.6	0.664	0.134	-0.002
0.405	-0.021	-0.427	-0.192	0.416	-0.225	0.44	0.46	0.608	0.672	0.141	0.004
0.406	-0.021	-0.429	-0.192	0.417	-0.225	0.439	0.46	0.606	0.67	0.14	0.004
0.418	-0.022	-0.441	-0.198	0.429	-0.232	0.427	0.455	0.6	0.665	0.134	-0.003
0.419	-0.015	-0.436	-0.202	0.427	-0.226	0.429	0.454	0.6	0.666	0.135	-0.002
0.397	-0.016	-0.413	-0.19	0.405	-0.214	0.429	0.451	0.601	0.666	0.135	-0.002
0.402	-0.011	-0.413	-0.196	0.407	-0.212	0.433	0.456	0.606	0.672	0.142	0.004
0.413	0.009	-0.406	-0.21	0.41	-0.199	0.448	0.467	0.615	0.684	0.154	0.017
0.406	0.007	-0.4	-0.206	0.404	-0.197	0.444	0.464	0.615	0.684	0.154	0.015
0.394	0.008	-0.388	-0.201	0.391	-0.19	0.444	0.468	0.621	0.69	0.161	0.02
0.41	0.012	-0.399	-0.21	0.405	-0.194	0.435	0.458	0.613	0.684	0.155	0.018
0.412	0.011	-0.402	-0.211	0.407	-0.196	0.432	0.45	0.609	0.68	0.154	0.015
0.361	0.004	-0.357	-0.182	0.359	-0.176	0.45	0.463	0.623	0.696	0.168	0.025
0.356	0.002	-0.354	-0.178	0.355	-0.176	0.447	0.461	0.621	0.695	0.166	0.024
0.373	0.005	-0.368	-0.189	0.371	-0.181	0.439	0.455	0.615	0.692	0.162	0.02
0.388	0.016	-0.373	-0.202	0.381	-0.178	0.435	0.45	0.614	0.695	0.163	0.021
0.401	0.029	-0.373	-0.214	0.387	-0.172	0.437	0.449	0.615	0.697	0.165	0.022
0.397	0.028	-0.369	-0.212	0.384	-0.171	0.439	0.448	0.616	0.696	0.164	0.021
0.399	0.025	-0.374	-0.211	0.387	-0.174	0.437	0.444	0.614	0.695	0.164	0.018
0.401	0.028	-0.374	-0.214	0.388	-0.173	0.434	0.441	0.612	0.695	0.162	0.017
0.39	0.021	-0.369	-0.205	0.38	-0.174	0.425	0.434	0.604	0.689	0.155	0.012
0.388	0.026	-0.362	-0.206	0.374	-0.168	0.426	0.433	0.602	0.688	0.154	0.014
0.395	0.035	-0.36	-0.214	0.378	-0.162	0.426	0.429	0.603	0.689	0.155	0.014
0.386	0.03	-0.356	-0.207	0.37	-0.163	0.426	0.424	0.6	0.686	0.155	0.011
0.373	0.028	-0.346	-0.2	0.359	-0.16	0.432	0.421	0.598	0.686	0.155	0.011
0.376	0.029	-0.347	-0.202	0.361	-0.159	0.433	0.419	0.598	0.685	0.154	0.012
0.403	0.046	-0.356	-0.224	0.38	-0.155	0.432	0.414	0.595	0.685	0.154	0.015
0.406	0.047	-0.359	-0.226	0.383	-0.157	0.429	0.408	0.59	0.682	0.151	0.011
0.385	0.033	-0.352	-0.208	0.368	-0.16	0.423	0.398	0.583	0.675	0.145	0.005
0.388	0.035	-0.354	-0.211	0.371	-0.16	0.423	0.389	0.578	0.672	0.144	0.004
0.389	0.033	-0.357	-0.21	0.372	-0.162	0.423	0.386	0.573	0.672	0.145	0.004
0.382	0.029	-0.353	-0.204	0.367	-0.162	0.421	0.383	0.569	0.672	0.145	0.005
0.377	0.024	-0.353	-0.199	0.364	-0.165	0.423	0.382	0.569	0.671	0.144	0.005
0.376	0.022	-0.354	-0.199	0.364	-0.166	0.425	0.372	0.559	0.663	0.139	0.001
0.38	0.027	-0.354	-0.203	0.366	-0.164	0.422	0.36	0.548	0.655	0.133	-0.005
0.379	0.018	-0.361	-0.198	0.37	-0.172	0.423	0.354	0.543	0.65	0.128	-0.007
0.37	0.019	-0.351	-0.194	0.36	-0.166	0.428	0.353	0.541	0.649	0.127	-0.006
0.355	0.022	-0.333	-0.188	0.344	-0.155	0.426	0.346	0.533	0.643	0.124	-0.008
0.343	0.017	-0.327	-0.179	0.335	-0.155	0.426	0.339	0.526	0.636	0.12	-0.009
0.345	0.019	-0.326	-0.181	0.335	-0.153	0.431	0.334	0.521	0.632	0.116	-0.011
0.359	0.021	-0.339	-0.189	0.348	-0.159	0.427	0.325	0.51	0.621	0.103	-0.019
0.354	0.015	-0.341	-0.184	0.347	-0.163	0.422	0.315	0.5	0.613	0.095	-0.025
0.341	0.004	-0.337	-0.172	0.339	-0.166	0.424	0.306	0.491	0.607	0.089	-0.029
0.338	-0.003	-0.341	-0.167	0.339	-0.172	0.425	0.298	0.483	0.601	0.084	-0.034
0.338	-0.004	-0.342	-0.167	0.34	-0.173	0.423	0.287	0.474	0.592	0.077	-0.036
0.336	-0.013	-0.35	-0.161	0.343	-0.182	0.422	0.279	0.465	0.585	0.072	-0.04
0.333	-0.022	-0.355	-0.154	0.344	-0.189	0.426	0.274	0.461	0.583	0.069	-0.042
0.332	-0.021	-0.354	-0.154	0.343	-0.188	0.428	0.266	0.45	0.573	0.061	-0.049
0.332	-0.022	-0.354	-0.154	0.343	-0.188	0.425	0.256	0.436	0.562	0.053	-0.053
0.336	-0.022	-0.358	-0.156	0.347	-0.19	0.421	0.246	0.426	0.555	0.051	-0.052
0.341	-0.022	-0.363	-0.158	0.351	-0.193	0.42	0.239	0.422	0.55	0.049	-0.053
0.343	-0.019	-0.363	-0.161	0.353	-0.192	0.422	0.232	0.415	0.545	0.043	-0.057
0.337	-0.025	-0.362	-0.155	0.349	-0.193	0.417	0.222	0.403	0.533	0.032	-0.065
0.323	-0.04	-0.363	-0.141	0.343	-0.202	0.406	0.207	0.389	0.52	0.02	-0.075
0.318	-0.049	-0.367	-0.134	0.343	-0.208	0.395	0.196	0.373	0.508	0.015	-0.078
0.306	-0.055	-0.361	-0.125	0.334	-0.208	0.394	0.191	0.368	0.503	0.013	-0.079
0.297	-0.049	-0.345	-0.123	0.321	-0.197	0.404	0.19	0.369	0.503	0.013	-0.077
0.309	-0.041	-0.351	-0.134	0.33	-0.196	0.404	0.186	0.364	0.499	0.011	-0.076
0.312	-0.05	-0.362	-0.131	0.337	-0.205	0.4	0.175	0.352	0.49	0.003	-0.083
0.301	-0.06	-0.362	-0.12	0.332	-0.211	0.402	0.169	0.343	0.483	-0.004	-0.088
0.304	-0.07	-0.374	-0.117	0.339	-0.222	0.397	0.158	0.327	0.47	-0.014	-0.093
0.308	-0.071	-0.38	-0.118	0.344	-0.226	0.398	0.151	0.319	0.464	-0.017	-0.093
0.318	-0.068	-0.385	-0.124	0.351	-0.226	0.394	0.141	0.309	0.454	-0.026	-0.1
0.325	-0.074	-0.399	-0.124	0.361	-0.236	0.386	0.127	0.294	0.44	-0.039	-0.11
0.303	-0.086	-0.39	-0.108	0.346	-0.238	0.391	0.126	0.29	0.436	-0.042	-0.114
0.3	-0.088	-0.39	-0.106	0.345	-0.239	0.388	0.118	0.281	0.427	-0.05	-0.12
0.265	-0.091	-0.356	-0.086	0.31	-0.224	0.4	0.126	0.288	0.433	-0.043	-0.111
0.236	-0.09	-0.327	-0.072	0.281	-0.209	0.416	0.139	0.302	0.447	-0.026	-0.094
0.269	-0.085	-0.354	-0.092	0.311	-0.22	0.412	0.13	0.294	0.442	-0.03	-0.097
0.269	-0.097	-0.365	-0.086	0.317	-0.231	0.405	0.113	0.277	0.428	-0.042	-0.105
0.257	-0.111	-0.368	-0.073	0.312	-0.24	0.402	0.104	0.264	0.418	-0.051	-0.111
0.272	-0.111	-0.384	-0.081	0.328	-0.247	0.398	0.098	0.257	0.409	-0.058	-0.116
0.289	-0.111	-0.401	-0.089	0.344	-0.256	0.393	0.088	0.244	0.399	-0.065	-0.121
0.273	-0.116	-0.389	-0.079	0.331	-0.253	0.397	0.087	0.24	0.394	-0.068	-0.122
0.262	-0.116	-0.378	-0.072	0.32	-0.247	0.402	0.086	0.238	0.391	-0.071	-0.123
0.278	-0.116	-0.394	-0.081	0.336	-0.255	0.395	0.078	0.229	0.382	-0.079	-0.127
0.284	-0.114	-0.399	-0.085	0.342	-0.257	0.392	0.074	0.225	0.379	-0.08	-0.128
0.266	-0.113	-0.379	-0.076	0.322	-0.246	0.4	0.08	0.231	0.385	-0.072	-0.123
0.254	-0.12	-0.375	-0.067	0.315	-0.247	0.404	0.082	0.229	0.385	-0.072	-0.122
0.26	-0.128	-0.388	-0.066	0.324	-0.258	0.4	0.074	0.217	0.377	-0.08	-0.127
0.255	-0.129	-0.384	-0.062	0.319	-0.256	0.399	0.07	0.211	0.37	-0.085	-0.133
0.258	-0.133	-0.391	-0.062	0.324	-0.262	0.397	0.066	0.207	0.366	-0.087	-0.134
0.258	-0.14	-0.399	-0.059	0.328	-0.27	0.394	0.059	0.201	0.361	-0.089	-0.136
0.255	-0.145	-0.401	-0.054	0.328	-0.274	0.391	0.053	0.194	0.356	-0.094	-0.138
0.265	-0.143	-0.408	-0.061	0.337	-0.276	0.389	0.05	0.188	0.351	-0.098	-0.139
0.268	-0.142	-0.41	-0.062	0.339	-0.276	0.389	0.049	0.185	0.349	-0.1	-0.141
0.269	-0.146	-0.415	-0.061	0.342	-0.281	0.387	0.048	0.184	0.347	-0.102	-0.141
0.265	-0.151	-0.417	-0.056	0.341	-0.284	0.386	0.045	0.182	0.344	-0.105	-0.144
0.264	-0.153	-0.417	-0.055	0.341	-0.285	0.388	0.042	0.181	0.343	-0.106	-0.146
0.266	-0.145	-0.411	-0.06	0.338	-0.278	0.395	0.046	0.185	0.347	-0.103	-0.141
0.256	-0.151	-0.407	-0.052	0.331	-0.279	0.394	0.046	0.185	0.347	-0.102	-0.14
0.251	-0.158	-0.409	-0.046	0.33	-0.283	0.389	0.038	0.177	0.34	-0.109	-0.146
0.249	-0.157	-0.408	-0.045	0.329	-0.283	0.387	0.035	0.173	0.335	-0.113	-0.149
0.263	-0.159	-0.423	-0.052	0.343	-0.291	0.385	0.032	0.172	0.336	-0.111	-0.147
0.274	-0.156	-0.43	-0.058	0.351	-0.293	0.388	0.035	0.177	0.34	-0.105	-0.143
0.254	-0.158	-0.412	-0.048	0.333	-0.285	0.395	0.04	0.181	0.342	-0.104	-0.144
0.225	-0.166	-0.392	-0.029	0.308	-0.279	0.395	0.038	0.18	0.34	-0.108	-0.15
0.238	-0.163	-0.402	-0.037	0.32	-0.283	0.392	0.035	0.176	0.336	-0.11	-0.151
0.266	-0.157	-0.423	-0.054	0.344	-0.29	0.389	0.033	0.171	0.331	-0.114	-0.15
0.269	-0.158	-0.427	-0.055	0.348	-0.293	0.388	0.03	0.165	0.325	-0.116	-0.153
0.263	-0.158	-0.421	-0.052	0.342	-0.29	0.389	0.029	0.166	0.327	-0.115	-0.153
0.255	-0.163	-0.418	-0.046	0.337	-0.29	0.392	0.029	0.17	0.331	-0.114	-0.151
0.26	-0.162	-0.422	-0.049	0.341	-0.292	0.39	0.025	0.166	0.328	-0.116	-0.152
0.258	-0.156	-0.414	-0.05	0.336	-0.285	0.388	0.024	0.163	0.326	-0.118	-0.154
0.242	-0.158	-0.401	-0.042	0.321	-0.28	0.389	0.025	0.165	0.329	-0.114	-0.151
0.24	-0.161	-0.402	-0.039	0.321	-0.281	0.387	0.021	0.162	0.329	-0.113	-0.15
0.254	-0.159	-0.413	-0.048	0.334	-0.286	0.383	0.018	0.157	0.324	-0.117	-0.151
0.246	-0.157	-0.404	-0.044	0.325	-0.281	0.381	0.019	0.158	0.323	-0.118	-0.151
0.246	-0.156	-0.404	-0.044	0.325	-0.28	0.38	0.018	0.154	0.32	-0.122	-0.154
0.262	-0.157	-0.42	-0.052	0.341	-0.289	0.379	0.016	0.152	0.317	-0.123	-0.155
0.257	-0.158	-0.415	-0.049	0.336	-0.286	0.38	0.017	0.152	0.317	-0.123	-0.154
0.251	-0.154	-0.406	-0.048	0.328	-0.281	0.384	0.02	0.157	0.32	-0.12	-0.151
0.245	-0.161	-0.406	-0.042	0.326	-0.284	0.387	0.022	0.16	0.322	-0.118	-0.15
0.236	-0.169	-0.406	-0.033	0.321	-0.287	0.383	0.022	0.159	0.32	-0.122	-0.151
0.232	-0.166	-0.399	-0.033	0.315	-0.282	0.382	0.021	0.159	0.319	-0.124	-0.154
0.246	-0.154	-0.401	-0.045	0.324	-0.278	0.384	0.02	0.158	0.32	-0.126	-0.157
0.253	-0.154	-0.408	-0.049	0.331	-0.281	0.385	0.021	0.159	0.321	-0.124	-0.152
0.251	-0.155	-0.407	-0.047	0.329	-0.282	0.384	0.02	0.16	0.322	-0.121	-0.15
0.256	-0.149	-0.406	-0.052	0.331	-0.278	0.386	0.025	0.165	0.326	-0.117	-0.149
0.254	-0.15	-0.406	-0.051	0.33	-0.279	0.387	0.028	0.167	0.328	-0.115	-0.147
0.249	-0.153	-0.404	-0.048	0.326	-0.279	0.384	0.026	0.165	0.325	-0.118	-0.15
0.257	-0.153	-0.41	-0.051	0.333	-0.282	0.38	0.023	0.161	0.321	-0.122	-0.154
0.255	-0.158	-0.413	-0.048	0.334	-0.285	0.381	0.025	0.161	0.32	-0.122	-0.154
0.239	-0.163	-0.404	-0.037	0.321	-0.283	0.387	0.029	0.166	0.321	-0.119	-0.151
0.24	-0.168	-0.409	-0.035	0.325	-0.289	0.382	0.022	0.161	0.318	-0.121	-0.152
0.246	-0.166	-0.412	-0.04	0.329	-0.289	0.383	0.021	0.16	0.319	-0.12	-0.152
0.251	-0.159	-0.41	-0.045	0.33	-0.284	0.386	0.023	0.161	0.32	-0.121	-0.153
0.25	-0.157	-0.408	-0.046	0.329	-0.282	0.385	0.02	0.159	0.32	-0.123	-0.156
0.237	-0.164	-0.402	-0.036	0.32	-0.283	0.383	0.019	0.157	0.319	-0.121	-0.157
0.237	-0.166	-0.405	-0.035	0.321	-0.285	0.381	0.019	0.157	0.318	-0.124	-0.158
0.25	-0.162	-0.412	-0.043	0.331	-0.287	0.382	0.021	0.157	0.319	-0.121	-0.16
0.255	-0.161	-0.416	-0.047	0.336	-0.289	0.382	0.02	0.156	0.319	-0.121	-0.158
0.263	-0.151	-0.415	-0.056	0.339	-0.283	0.384	0.022	0.16	0.325	-0.119	-0.153
0.266	-0.149	-0.415	-0.058	0.34	-0.282	0.384	0.021	0.157	0.322	-0.119	-0.155
0.254	-0.158	-0.412	-0.048	0.333	-0.285	0.383	0.018	0.153	0.316	-0.124	-0.16
0.235	-0.163	-0.399	-0.036	0.317	-0.281	0.383	0.021	0.158	0.321	-0.12	-0.156
0.227	-0.164	-0.392	-0.03	0.308	-0.278	0.385	0.024	0.158	0.322	-0.118	-0.153
0.245	-0.158	-0.405	-0.043	0.325	-0.281	0.383	0.024	0.154	0.318	-0.123	-0.155
0.27	-0.153	-0.424	-0.058	0.346	-0.289	0.377	0.02	0.15	0.312	-0.127	-0.158
0.272	-0.155	-0.428	-0.058	0.349	-0.291	0.377	0.019	0.149	0.311	-0.129	-0.159
0.269	-0.153	-0.423	-0.057	0.346	-0.289	0.383	0.023	0.153	0.317	-0.124	-0.158
0.269	-0.148	-0.418	-0.06	0.344	-0.283	0.386	0.026	0.157	0.319	-0.123	-0.158
0.267	-0.148	-0.415	-0.059	0.341	-0.281	0.383	0.025	0.157	0.319	-0.122	-0.154
0.254	-0.151	-0.406	-0.051	0.329	-0.279	0.39	0.033	0.163	0.326	-0.115	-0.148
0.233	-0.155	-0.389	-0.038	0.31	-0.272	0.398	0.042	0.17	0.334	-0.105	-0.141
0.246	-0.16	-0.406	-0.043	0.326	-0.283	0.393	0.037	0.166	0.331	-0.106	-0.142
0.258	-0.159	-0.418	-0.049	0.338	-0.289	0.391	0.033	0.162	0.327	-0.113	-0.15
0.253	-0.159	-0.413	-0.046	0.333	-0.286	0.394	0.035	0.166	0.329	-0.11	-0.15
0.267	-0.158	-0.425	-0.054	0.346	-0.291	0.387	0.029	0.162	0.326	-0.113	-0.151
0.265	-0.159	-0.425	-0.053	0.344	-0.292	0.386	0.029	0.162	0.329	-0.111	-0.151
0.251	-0.165	-0.416	-0.043	0.334	-0.29	0.389	0.033	0.167	0.331	-0.106	-0.147
0.255	-0.161	-0.416	-0.047	0.336	-0.288	0.387	0.032	0.165	0.329	-0.11	-0.149
0.257	-0.152	-0.41	-0.051	0.334	-0.281	0.385	0.033	0.165	0.329	-0.111	-0.15
0.254	-0.149	-0.404	-0.052	0.329	-0.276	0.387	0.034	0.166	0.329	-0.111	-0.149
0.261	-0.148	-0.409	-0.056	0.335	-0.279	0.388	0.033	0.165	0.33	-0.108	-0.147
0.262	-0.15	-0.413	-0.055	0.338	-0.282	0.387	0.032	0.165	0.327	-0.11	-0.148
0.249	-0.152	-0.403	-0.048	0.326	-0.278	0.393	0.038	0.17	0.332	-0.108	-0.144
0.248	-0.149	-0.399	-0.05	0.324	-0.274	0.395	0.04	0.172	0.334	-0.106	-0.141
0.252	-0.151	-0.403	-0.05	0.327	-0.277	0.389	0.035	0.167	0.327	-0.114	-0.147
0.248	-0.155	-0.406	-0.046	0.327	-0.281	0.389	0.034	0.166	0.327	-0.114	-0.15
0.25	-0.155	-0.406	-0.047	0.328	-0.281	0.387	0.033	0.165	0.325	-0.116	-0.15
0.251	-0.159	-0.41	-0.046	0.331	-0.284	0.382	0.028	0.161	0.318	-0.121	-0.155
0.264	-0.152	-0.417	-0.055	0.34	-0.285	0.383	0.029	0.162	0.32	-0.118	-0.154
0.257	-0.15	-0.408	-0.052	0.332	-0.28	0.388	0.034	0.168	0.325	-0.113	-0.148
0.249	-0.152	-0.403	-0.048	0.326	-0.278	0.386	0.033	0.168	0.323	-0.117	-0.153
0.255	-0.151	-0.407	-0.051	0.331	-0.28	0.382	0.03	0.165	0.318	-0.119	-0.154
0.254	-0.154	-0.409	-0.05	0.332	-0.282	0.385	0.032	0.167	0.322	-0.117	-0.151
0.262	-0.151	-0.414	-0.054	0.338	-0.283	0.386	0.035	0.17	0.324	-0.116	-0.15
0.266	-0.149	-0.416	-0.058	0.341	-0.283	0.385	0.035	0.171	0.325	-0.115	-0.15
0.275	-0.148	-0.423	-0.063	0.349	-0.286	0.382	0.03	0.169	0.323	-0.117	-0.153
0.276	-0.149	-0.426	-0.063	0.35	-0.288	0.379	0.028	0.166	0.322	-0.118	-0.155
0.269	-0.154	-0.424	-0.057	0.346	-0.289	0.377	0.021	0.165	0.324	-0.116	-0.153
0.266	-0.158	-0.423	-0.053	0.344	-0.291	0.379	0.023	0.168	0.327	-0.111	-0.148
0.247	-0.16	-0.408	-0.043	0.328	-0.284	0.384	0.031	0.172	0.33	-0.109	-0.147
0.249	-0.165	-0.415	-0.042	0.333	-0.29	0.381	0.027	0.169	0.326	-0.113	-0.151
0.247	-0.17	-0.418	-0.038	0.332	-0.294	0.38	0.028	0.169	0.326	-0.113	-0.15
0.227	-0.17	-0.398	-0.028	0.312	-0.283	0.388	0.034	0.176	0.335	-0.106	-0.143
0.236	-0.163	-0.401	-0.036	0.318	-0.282	0.389	0.036	0.177	0.337	-0.103	-0.141
0.256	-0.156	-0.413	-0.05	0.335	-0.285	0.387	0.036	0.175	0.336	-0.104	-0.141
0.256	-0.161	-0.417	-0.047	0.336	-0.289	0.385	0.034	0.173	0.335	-0.105	-0.142
0.243	-0.166	-0.409	-0.038	0.326	-0.287	0.387	0.035	0.175	0.335	-0.105	-0.143
0.246	-0.165	-0.411	-0.041	0.329	-0.288	0.389	0.037	0.177	0.338	-0.102	-0.141
0.257	-0.16	-0.417	-0.048	0.337	-0.289	0.387	0.034	0.173	0.335	-0.102	-0.141
0.257	-0.159	-0.417	-0.049	0.337	-0.288	0.385	0.029	0.171	0.33	-0.107	-0.146
0.264	-0.158	-0.422	-0.052	0.343	-0.29	0.385	0.03	0.171	0.33	-0.107	-0.148
0.287	-0.141	-0.429	-0.072	0.358	-0.285	0.385	0.032	0.172	0.33	-0.104	-0.145
0.281	-0.143	-0.425	-0.069	0.353	-0.284	0.385	0.032	0.173	0.332	-0.105	-0.143
0.264	-0.15	-0.415	-0.056	0.339	-0.283	0.386	0.033	0.173	0.332	-0.107	-0.145
0.257	-0.152	-0.41	-0.051	0.334	-0.282	0.388	0.035	0.176	0.332	-0.107	-0.144
0.237	-0.162	-0.4	-0.037	0.319	-0.281	0.389	0.038	0.179	0.334	-0.104	-0.144
0.241	-0.168	-0.409	-0.036	0.325	-0.288	0.384	0.034	0.173	0.327	-0.111	-0.149
0.256	-0.173	-0.43	-0.041	0.343	-0.301	0.375	0.028	0.166	0.318	-0.117	-0.155
0.267	-0.165	-0.432	-0.05	0.349	-0.299	0.374	0.024	0.161	0.314	-0.118	-0.157
0.27	-0.157	-0.428	-0.056	0.348	-0.293	0.377	0.023	0.158	0.312	-0.123	-0.159
0.257	-0.154	-0.411	-0.051	0.334	-0.283	0.383	0.03	0.157	0.313	-0.12	-0.153
0.243	-0.155	-0.4	-0.044	0.321	-0.278	0.384	0.033	0.157	0.315	-0.115	-0.146
0.262	-0.15	-0.413	-0.055	0.337	-0.282	0.38	0.029	0.157	0.316	-0.115	-0.149
0.255	-0.146	-0.402	-0.054	0.329	-0.274	0.384	0.03	0.16	0.32	-0.112	-0.145
0.226	-0.155	-0.383	-0.035	0.303	-0.269	0.383	0.027	0.16	0.322	-0.11	-0.144
0.23	-0.158	-0.389	-0.035	0.309	-0.274	0.381	0.028	0.161	0.323	-0.11	-0.145
0.234	-0.159	-0.395	-0.037	0.315	-0.277	0.38	0.025	0.16	0.32	-0.112	-0.146
0.241	-0.16	-0.402	-0.041	0.322	-0.281	0.378	0.018	0.155	0.317	-0.115	-0.149
0.245	-0.16	-0.406	-0.043	0.325	-0.282	0.378	0.017	0.151	0.314	-0.116	-0.15
0.245	-0.166	-0.411	-0.04	0.328	-0.288	0.378	0.018	0.151	0.31	-0.118	-0.151
0.245	-0.168	-0.413	-0.038	0.329	-0.29	0.381	0.022	0.154	0.312	-0.117	-0.147
0.255	-0.16	-0.414	-0.047	0.334	-0.287	0.379	0.02	0.153	0.311	-0.118	-0.148
0.257	-0.152	-0.41	-0.052	0.334	-0.281	0.382	0.021	0.154	0.313	-0.117	-0.149
0.241	-0.156	-0.399	-0.042	0.32	-0.278	0.387	0.024	0.155	0.315	-0.117	-0.151
0.245	-0.161	-0.406	-0.042	0.326	-0.284	0.384	0.019	0.151	0.314	-0.117	-0.151
0.255	-0.154	-0.41	-0.05	0.333	-0.282	0.384	0.018	0.151	0.317	-0.115	-0.147
0.259	-0.149	-0.408	-0.054	0.333	-0.279	0.385	0.019	0.152	0.32	-0.115	-0.146
0.257	-0.153	-0.411	-0.051	0.334	-0.282	0.384	0.017	0.153	0.32	-0.115	-0.147
0.264	-0.151	-0.416	-0.056	0.34	-0.284	0.38	0.011	0.148	0.314	-0.118	-0.15
0.267	-0.15	-0.418	-0.058	0.342	-0.284	0.38	0.011	0.148	0.312	-0.119	-0.151
0.261	-0.151	-0.413	-0.054	0.337	-0.283	0.381	0.015	0.151	0.315	-0.117	-0.152
0.261	-0.153	-0.414	-0.053	0.338	-0.284	0.377	0.013	0.148	0.314	-0.117	-0.152
0.254	-0.158	-0.412	-0.048	0.333	-0.285	0.384	0.015	0.151	0.315	-0.116	-0.15
0.246	-0.157	-0.404	-0.044	0.325	-0.281	0.388	0.017	0.153	0.317	-0.113	-0.148
0.244	-0.155	-0.401	-0.044	0.323	-0.279	0.388	0.016	0.153	0.316	-0.112	-0.147
0.248	-0.156	-0.405	-0.045	0.326	-0.281	0.384	0.013	0.152	0.316	-0.113	-0.149
0.252	-0.162	-0.415	-0.044	0.334	-0.289	0.38	0.013	0.147	0.312	-0.117	-0.15
0.253	-0.169	-0.423	-0.042	0.338	-0.296	0.375	0.009	0.14	0.302	-0.126	-0.158
0.27	-0.164	-0.434	-0.052	0.351	-0.299	0.371	0.007	0.14	0.301	-0.127	-0.16
0.267	-0.162	-0.428	-0.052	0.347	-0.295	0.377	0.012	0.144	0.306	-0.118	-0.153
0.241	-0.163	-0.406	-0.039	0.324	-0.284	0.379	0.015	0.147	0.31	-0.116	-0.151
0.252	-0.161	-0.414	-0.045	0.333	-0.287	0.372	0.011	0.145	0.31	-0.116	-0.15
0.26	-0.16	-0.421	-0.05	0.341	-0.291	0.369	0.011	0.145	0.312	-0.115	-0.148
0.246	-0.162	-0.409	-0.042	0.328	-0.285	0.37	0.011	0.145	0.309	-0.117	-0.152
0.241	-0.163	-0.406	-0.038	0.323	-0.284	0.368	0.007	0.143	0.307	-0.117	-0.15
0.243	-0.163	-0.407	-0.04	0.326	-0.286	0.37	0.005	0.141	0.307	-0.116	-0.148
0.253	-0.157	-0.41	-0.048	0.331	-0.283	0.369	0.005	0.141	0.307	-0.115	-0.149
0.262	-0.155	-0.417	-0.053	0.34	-0.286	0.364	-0.002	0.137	0.305	-0.118	-0.15
0.25	-0.164	-0.414	-0.043	0.332	-0.29	0.361	-0.009	0.13	0.301	-0.124	-0.155
0.241	-0.164	-0.406	-0.038	0.323	-0.284	0.367	-0.002	0.136	0.304	-0.119	-0.15
0.25	-0.16	-0.411	-0.044	0.331	-0.286	0.369	0	0.137	0.305	-0.117	-0.148
0.25	-0.166	-0.416	-0.042	0.333	-0.291	0.365	-0.004	0.132	0.302	-0.121	-0.152
0.244	-0.173	-0.418	-0.035	0.331	-0.296	0.365	-0.004	0.132	0.301	-0.122	-0.152
0.24	-0.177	-0.419	-0.031	0.33	-0.299	0.365	-0.005	0.129	0.299	-0.123	-0.154
0.248	-0.168	-0.417	-0.04	0.333	-0.292	0.366	-0.002	0.131	0.303	-0.121	-0.152
0.255	-0.157	-0.412	-0.049	0.334	-0.284	0.368	-0.002	0.132	0.302	-0.122	-0.152
0.248	-0.163	-0.411	-0.043	0.33	-0.287	0.368	-0.003	0.131	0.301	-0.123	-0.155
0.247	-0.169	-0.417	-0.038	0.332	-0.293	0.368	-0.004	0.131	0.299	-0.124	-0.155
0.251	-0.168	-0.419	-0.041	0.335	-0.293	0.364	-0.007	0.127	0.295	-0.128	-0.158
0.256	-0.167	-0.422	-0.044	0.339	-0.295	0.363	-0.006	0.129	0.298	-0.124	-0.155
0.258	-0.166	-0.424	-0.045	0.341	-0.295	0.369	-0.005	0.13	0.299	-0.123	-0.155
0.265	-0.163	-0.429	-0.051	0.346	-0.296	0.366	-0.01	0.126	0.293	-0.127	-0.163
0.282	-0.158	-0.442	-0.061	0.362	-0.3	0.357	-0.018	0.115	0.284	-0.135	-0.167
0.27	-0.162	-0.432	-0.054	0.351	-0.297	0.36	-0.015	0.119	0.289	-0.135	-0.164
0.245	-0.172	-0.418	-0.036	0.332	-0.295	0.367	-0.009	0.128	0.297	-0.13	-0.162
0.252	-0.178	-0.43	-0.036	0.341	-0.304	0.36	-0.018	0.115	0.282	-0.141	-0.17
0.264	-0.174	-0.439	-0.044	0.351	-0.306	0.357	-0.021	0.113	0.281	-0.14	-0.165
0.251	-0.171	-0.421	-0.04	0.336	-0.296	0.367	-0.009	0.123	0.293	-0.128	-0.155
0.235	-0.171	-0.406	-0.032	0.32	-0.288	0.373	-0.005	0.126	0.296	-0.124	-0.154
0.24	-0.167	-0.408	-0.036	0.324	-0.287	0.371	-0.011	0.123	0.294	-0.126	-0.154
0.239	-0.164	-0.404	-0.037	0.321	-0.284	0.368	-0.013	0.121	0.292	-0.126	-0.157
0.236	-0.168	-0.406	-0.034	0.321	-0.287	0.364	-0.018	0.117	0.289	-0.13	-0.161
0.244	-0.175	-0.421	-0.034	0.333	-0.298	0.362	-0.021	0.111	0.281	-0.139	-0.166
0.256	-0.174	-0.431	-0.041	0.344	-0.303	0.365	-0.018	0.11	0.281	-0.139	-0.168
0.266	-0.172	-0.438	-0.046	0.351	-0.305	0.365	-0.018	0.111	0.278	-0.139	-0.167
0.258	-0.174	-0.433	-0.042	0.345	-0.303	0.365	-0.021	0.11	0.278	-0.139	-0.168
0.261	-0.176	-0.438	-0.042	0.349	-0.307	0.363	-0.024	0.108	0.279	-0.139	-0.168
0.275	-0.17	-0.446	-0.051	0.36	-0.308	0.364	-0.023	0.108	0.279	-0.139	-0.166
0.267	-0.167	-0.434	-0.049	0.35	-0.301	0.365	-0.02	0.112	0.282	-0.136	-0.166
0.257	-0.176	-0.435	-0.04	0.346	-0.306	0.364	-0.022	0.111	0.28	-0.137	-0.169
0.251	-0.179	-0.431	-0.035	0.341	-0.306	0.365	-0.021	0.111	0.281	-0.137	-0.167
0.227	-0.182	-0.409	-0.021	0.318	-0.296	0.372	-0.015	0.118	0.287	-0.129	-0.159
0.221	-0.182	-0.405	-0.019	0.312	-0.294	0.375	-0.013	0.122	0.29	-0.123	-0.155
0.233	-0.184	-0.417	-0.024	0.325	-0.301	0.37	-0.014	0.12	0.29	-0.123	-0.155
0.245	-0.179	-0.426	-0.033	0.336	-0.303	0.367	-0.021	0.113	0.284	-0.132	-0.164
0.251	-0.181	-0.433	-0.034	0.342	-0.307	0.363	-0.025	0.105	0.277	-0.141	-0.171
0.229	-0.193	-0.422	-0.018	0.326	-0.308	0.366	-0.021	0.107	0.28	-0.138	-0.169
0.225	-0.184	-0.41	-0.019	0.317	-0.298	0.369	-0.018	0.108	0.284	-0.134	-0.166
0.238	-0.177	-0.415	-0.03	0.327	-0.296	0.368	-0.019	0.108	0.281	-0.134	-0.165
0.239	-0.175	-0.416	-0.032	0.328	-0.296	0.369	-0.017	0.108	0.28	-0.135	-0.166
0.241	-0.178	-0.42	-0.031	0.331	-0.299	0.365	-0.018	0.105	0.278	-0.137	-0.169
0.255	-0.17	-0.426	-0.042	0.341	-0.298	0.367	-0.017	0.104	0.279	-0.137	-0.169
0.265	-0.161	-0.427	-0.051	0.345	-0.294	0.369	-0.016	0.103	0.278	-0.137	-0.168
0.26	-0.16	-0.421	-0.05	0.341	-0.291	0.366	-0.018	0.1	0.278	-0.135	-0.166
0.263	-0.165	-0.429	-0.049	0.345	-0.297	0.36	-0.03	0.089	0.272	-0.139	-0.168
0.248	-0.175	-0.423	-0.036	0.336	-0.299	0.358	-0.035	0.087	0.268	-0.141	-0.17
0.232	-0.172	-0.405	-0.029	0.318	-0.288	0.366	-0.025	0.093	0.272	-0.139	-0.168
0.246	-0.171	-0.418	-0.037	0.332	-0.294	0.365	-0.024	0.092	0.273	-0.138	-0.166
0.239	-0.177	-0.417	-0.03	0.328	-0.297	0.367	-0.021	0.097	0.278	-0.134	-0.165
0.229	-0.182	-0.411	-0.022	0.32	-0.297	0.366	-0.024	0.096	0.275	-0.138	-0.17
0.24	-0.181	-0.422	-0.029	0.331	-0.302	0.359	-0.033	0.089	0.268	-0.143	-0.173
0.242	-0.178	-0.421	-0.032	0.332	-0.3	0.361	-0.032	0.09	0.265	-0.144	-0.172
0.24	-0.18	-0.422	-0.029	0.331	-0.301	0.362	-0.03	0.089	0.265	-0.145	-0.172
0.246	-0.175	-0.423	-0.035	0.334	-0.299	0.361	-0.029	0.091	0.267	-0.142	-0.17
0.241	-0.179	-0.421	-0.03	0.331	-0.3	0.358	-0.029	0.089	0.265	-0.144	-0.171
0.241	-0.181	-0.423	-0.029	0.332	-0.302	0.355	-0.028	0.09	0.265	-0.143	-0.172
0.24	-0.178	-0.419	-0.03	0.33	-0.299	0.358	-0.025	0.094	0.269	-0.139	-0.17
0.242	-0.18	-0.423	-0.03	0.333	-0.302	0.36	-0.025	0.091	0.266	-0.143	-0.171
0.263	-0.165	-0.429	-0.049	0.346	-0.297	0.364	-0.022	0.093	0.266	-0.142	-0.167
0.266	-0.163	-0.429	-0.051	0.347	-0.296	0.365	-0.021	0.092	0.266	-0.141	-0.166
0.265	-0.168	-0.433	-0.048	0.348	-0.3	0.364	-0.025	0.088	0.263	-0.142	-0.169
0.249	-0.173	-0.424	-0.037	0.337	-0.299	0.362	-0.025	0.086	0.263	-0.146	-0.172
0.247	-0.177	-0.425	-0.034	0.336	-0.302	0.36	-0.027	0.087	0.263	-0.149	-0.173
0.26	-0.169	-0.43	-0.045	0.345	-0.3	0.364	-0.023	0.092	0.267	-0.144	-0.168
0.261	-0.171	-0.432	-0.044	0.346	-0.301	0.359	-0.026	0.088	0.264	-0.147	-0.17
0.253	-0.177	-0.43	-0.037	0.341	-0.304	0.357	-0.03	0.085	0.262	-0.15	-0.173
0.23	-0.177	-0.409	-0.026	0.32	-0.293	0.366	-0.022	0.09	0.269	-0.143	-0.167
0.232	-0.175	-0.408	-0.028	0.32	-0.291	0.366	-0.022	0.089	0.269	-0.141	-0.165
0.242	-0.179	-0.423	-0.031	0.333	-0.301	0.362	-0.029	0.086	0.266	-0.146	-0.171
0.244	-0.183	-0.428	-0.03	0.336	-0.306	0.36	-0.031	0.084	0.264	-0.148	-0.174
0.248	-0.182	-0.431	-0.033	0.34	-0.307	0.357	-0.032	0.083	0.263	-0.15	-0.176
0.248	-0.18	-0.429	-0.033	0.339	-0.305	0.358	-0.032	0.084	0.265	-0.149	-0.174
0.251	-0.182	-0.433	-0.034	0.342	-0.308	0.359	-0.035	0.084	0.265	-0.148	-0.174
0.252	-0.183	-0.436	-0.034	0.344	-0.31	0.359	-0.037	0.082	0.263	-0.15	-0.176
0.226	-0.185	-0.412	-0.019	0.319	-0.299	0.367	-0.031	0.086	0.27	-0.142	-0.17
0.217	-0.183	-0.402	-0.017	0.309	-0.293	0.371	-0.029	0.09	0.274	-0.141	-0.168
0.247	-0.173	-0.421	-0.036	0.334	-0.298	0.364	-0.036	0.081	0.265	-0.149	-0.173
0.262	-0.171	-0.433	-0.045	0.347	-0.302	0.361	-0.038	0.079	0.261	-0.152	-0.176
0.248	-0.179	-0.428	-0.034	0.338	-0.304	0.364	-0.035	0.082	0.263	-0.151	-0.175
0.24	-0.179	-0.42	-0.03	0.33	-0.3	0.367	-0.032	0.086	0.266	-0.148	-0.17
0.241	-0.177	-0.419	-0.032	0.33	-0.298	0.368	-0.03	0.087	0.269	-0.144	-0.167
0.231	-0.183	-0.415	-0.024	0.323	-0.299	0.37	-0.03	0.086	0.27	-0.147	-0.168
0.223	-0.185	-0.409	-0.018	0.316	-0.297	0.371	-0.032	0.087	0.269	-0.145	-0.168
0.225	-0.186	-0.412	-0.018	0.318	-0.299	0.367	-0.035	0.082	0.264	-0.147	-0.17
0.234	-0.191	-0.425	-0.021	0.329	-0.308	0.365	-0.038	0.078	0.259	-0.155	-0.174
0.244	-0.189	-0.433	-0.028	0.339	-0.311	0.367	-0.036	0.082	0.26	-0.154	-0.174
0.251	-0.183	-0.435	-0.034	0.343	-0.309	0.365	-0.036	0.083	0.262	-0.152	-0.176
0.25	-0.186	-0.438	-0.031	0.344	-0.312	0.361	-0.039	0.081	0.26	-0.155	-0.178
0.246	-0.189	-0.436	-0.029	0.341	-0.313	0.359	-0.042	0.077	0.257	-0.158	-0.181
0.258	-0.179	-0.439	-0.039	0.348	-0.309	0.362	-0.042	0.078	0.259	-0.158	-0.178
0.271	-0.171	-0.443	-0.05	0.356	-0.307	0.365	-0.039	0.081	0.26	-0.153	-0.171
0.256	-0.177	-0.434	-0.038	0.344	-0.306	0.365	-0.037	0.082	0.262	-0.149	-0.168
0.227	-0.18	-0.408	-0.022	0.317	-0.295	0.371	-0.029	0.087	0.27	-0.143	-0.164
0.236	-0.178	-0.416	-0.029	0.326	-0.297	0.368	-0.03	0.087	0.268	-0.144	-0.167
0.257	-0.174	-0.432	-0.041	0.344	-0.303	0.36	-0.037	0.079	0.262	-0.149	-0.173
0.256	-0.173	-0.43	-0.041	0.343	-0.302	0.356	-0.045	0.072	0.256	-0.155	-0.181
0.258	-0.178	-0.437	-0.04	0.347	-0.308	0.351	-0.047	0.071	0.255	-0.157	-0.182
0.236	-0.182	-0.419	-0.026	0.328	-0.301	0.357	-0.039	0.08	0.261	-0.15	-0.173
0.222	-0.18	-0.403	-0.02	0.312	-0.292	0.363	-0.036	0.084	0.264	-0.15	-0.173
0.228	-0.178	-0.407	-0.024	0.318	-0.293	0.367	-0.032	0.087	0.268	-0.146	-0.172
0.234	-0.174	-0.409	-0.029	0.322	-0.292	0.367	-0.029	0.091	0.273	-0.141	-0.167
0.239	-0.169	-0.409	-0.035	0.324	-0.289	0.367	-0.032	0.09	0.27	-0.143	-0.168
0.242	-0.171	-0.413	-0.035	0.328	-0.292	0.368	-0.035	0.088	0.267	-0.146	-0.171
0.246	-0.171	-0.418	-0.037	0.332	-0.294	0.366	-0.038	0.086	0.268	-0.146	-0.171
0.25	-0.17	-0.42	-0.04	0.335	-0.295	0.366	-0.04	0.082	0.265	-0.148	-0.175
0.261	-0.167	-0.428	-0.047	0.344	-0.297	0.361	-0.043	0.079	0.26	-0.153	-0.178
0.253	-0.162	-0.416	-0.045	0.335	-0.289	0.364	-0.037	0.084	0.263	-0.151	-0.177
0.236	-0.16	-0.397	-0.038	0.317	-0.279	0.372	-0.029	0.092	0.273	-0.144	-0.173
0.229	-0.161	-0.391	-0.034	0.309	-0.276	0.376	-0.025	0.099	0.277	-0.138	-0.167
0.24	-0.154	-0.395	-0.043	0.318	-0.275	0.371	-0.025	0.097	0.277	-0.138	-0.166
0.249	-0.145	-0.396	-0.052	0.323	-0.271	0.367	-0.03	0.092	0.275	-0.141	-0.169
0.236	-0.147	-0.384	-0.044	0.309	-0.266	0.372	-0.03	0.096	0.277	-0.139	-0.166
0.233	-0.144	-0.377	-0.043	0.304	-0.261	0.373	-0.031	0.096	0.278	-0.139	-0.165
0.236	-0.144	-0.382	-0.045	0.308	-0.263	0.37	-0.036	0.091	0.273	-0.145	-0.171
0.253	-0.14	-0.393	-0.056	0.323	-0.267	0.37	-0.039	0.087	0.271	-0.148	-0.172
0.254	-0.139	-0.393	-0.058	0.323	-0.266	0.372	-0.043	0.085	0.271	-0.148	-0.171
0.224	-0.149	-0.373	-0.037	0.298	-0.261	0.378	-0.038	0.089	0.273	-0.144	-0.171
0.225	-0.144	-0.369	-0.04	0.296	-0.257	0.382	-0.032	0.096	0.278	-0.141	-0.169
0.24	-0.132	-0.373	-0.054	0.306	-0.253	0.382	-0.033	0.094	0.277	-0.144	-0.173
0.24	-0.136	-0.377	-0.052	0.308	-0.257	0.377	-0.038	0.089	0.274	-0.148	-0.177
0.259	-0.131	-0.39	-0.064	0.324	-0.261	0.377	-0.037	0.092	0.277	-0.141	-0.171
0.278	-0.122	-0.4	-0.077	0.339	-0.262	0.378	-0.035	0.093	0.277	-0.139	-0.169
0.275	-0.118	-0.395	-0.078	0.335	-0.257	0.376	-0.035	0.093	0.278	-0.137	-0.168
0.288	-0.096	-0.385	-0.096	0.336	-0.24	0.386	-0.022	0.104	0.29	-0.125	-0.16
0.295	-0.09	-0.387	-0.102	0.341	-0.238	0.385	-0.02	0.107	0.293	-0.123	-0.159
0.262	-0.101	-0.363	-0.08	0.312	-0.232	0.389	-0.018	0.109	0.296	-0.123	-0.157
0.239	-0.104	-0.344	-0.068	0.291	-0.224	0.399	-0.011	0.113	0.298	-0.12	-0.155
0.251	-0.107	-0.359	-0.071	0.305	-0.234	0.393	-0.018	0.106	0.291	-0.127	-0.161
0.266	-0.104	-0.37	-0.081	0.318	-0.237	0.39	-0.021	0.104	0.287	-0.131	-0.166
0.273	-0.101	-0.374	-0.086	0.324	-0.237	0.391	-0.017	0.108	0.29	-0.129	-0.165
0.271	-0.1	-0.371	-0.086	0.321	-0.236	0.39	-0.013	0.111	0.294	-0.125	-0.16
0.265	-0.091	-0.357	-0.086	0.311	-0.225	0.392	-0.009	0.118	0.301	-0.117	-0.152
0.27	-0.082	-0.352	-0.093	0.31	-0.217	0.393	-0.01	0.12	0.303	-0.114	-0.151
0.268	-0.08	-0.347	-0.093	0.307	-0.213	0.393	-0.011	0.121	0.303	-0.116	-0.152
0.259	-0.081	-0.341	-0.089	0.299	-0.211	0.39	-0.011	0.123	0.307	-0.114	-0.15
0.247	-0.085	-0.333	-0.081	0.29	-0.208	0.38	-0.018	0.117	0.301	-0.119	-0.157
0.254	-0.079	-0.333	-0.087	0.292	-0.205	0.371	-0.024	0.114	0.296	-0.123	-0.162
0.281	-0.062	-0.344	-0.109	0.312	-0.203	0.362	-0.027	0.114	0.3	-0.12	-0.159
0.274	-0.058	-0.332	-0.107	0.302	-0.195	0.359	-0.025	0.117	0.304	-0.117	-0.156
0.252	-0.064	-0.317	-0.093	0.283	-0.191	0.354	-0.026	0.117	0.304	-0.117	-0.154
0.258	-0.07	-0.329	-0.094	0.293	-0.199	0.337	-0.031	0.114	0.301	-0.118	-0.152
0.264	-0.078	-0.343	-0.093	0.303	-0.21	0.331	-0.033	0.112	0.299	-0.117	-0.151
0.256	-0.084	-0.34	-0.086	0.297	-0.211	0.335	-0.035	0.11	0.3	-0.116	-0.149
0.254	-0.086	-0.341	-0.084	0.297	-0.213	0.338	-0.036	0.106	0.297	-0.12	-0.151
0.26	-0.095	-0.355	-0.083	0.307	-0.225	0.341	-0.041	0.102	0.292	-0.124	-0.153
0.27	-0.101	-0.371	-0.084	0.32	-0.236	0.344	-0.049	0.096	0.286	-0.128	-0.154
0.276	-0.102	-0.378	-0.087	0.326	-0.239	0.342	-0.051	0.091	0.281	-0.132	-0.154
0.273	-0.101	-0.374	-0.086	0.323	-0.237	0.339	-0.046	0.093	0.285	-0.131	-0.154
0.273	-0.098	-0.371	-0.087	0.322	-0.234	0.335	-0.045	0.099	0.289	-0.127	-0.152
0.277	-0.096	-0.373	-0.09	0.325	-0.234	0.325	-0.048	0.099	0.29	-0.123	-0.149
0.28	-0.101	-0.381	-0.089	0.33	-0.24	0.317	-0.053	0.095	0.287	-0.127	-0.152
