-0.494	-0.823	-0.328	0.658	-0.084	-0.575	0.273	0.033	0.141	0.064	0.095	0.078
-0.493	-0.819	-0.326	0.655	-0.084	-0.572	0.272	0.029	0.142	0.067	0.095	0.08
-0.506	-0.821	-0.315	0.663	-0.096	-0.568	0.279	0.029	0.145	0.067	0.094	0.078
-0.511	-0.831	-0.319	0.671	-0.097	-0.575	0.273	0.013	0.127	0.053	0.085	0.069
-0.521	-0.842	-0.32	0.681	-0.101	-0.581	0.268	0.004	0.126	0.049	0.08	0.065
-0.512	-0.825	-0.313	0.668	-0.1	-0.569	0.286	0.006	0.128	0.051	0.081	0.068
-0.51	-0.825	-0.315	0.667	-0.098	-0.57	0.285	-0.003	0.12	0.044	0.076	0.064
-0.531	-0.833	-0.301	0.682	-0.115	-0.567	0.289	-0.011	0.114	0.038	0.071	0.059
-0.53	-0.83	-0.299	0.679	-0.116	-0.564	0.289	-0.013	0.111	0.035	0.07	0.058
-0.519	-0.83	-0.311	0.674	-0.104	-0.571	0.272	-0.022	0.109	0.03	0.065	0.052
-0.517	-0.832	-0.315	0.674	-0.102	-0.573	0.278	-0.033	0.099	0.021	0.057	0.046
-0.522	-0.828	-0.305	0.675	-0.108	-0.567	0.302	-0.031	0.102	0.024	0.059	0.05
-0.533	-0.822	-0.289	0.677	-0.122	-0.555	0.304	-0.022	0.108	0.028	0.063	0.05
-0.535	-0.821	-0.286	0.678	-0.124	-0.553	0.296	-0.025	0.104	0.024	0.059	0.046
-0.535	-0.823	-0.288	0.678	-0.123	-0.555	0.297	-0.043	0.098	0.022	0.058	0.045
-0.529	-0.818	-0.288	0.673	-0.12	-0.553	0.29	-0.052	0.091	0.019	0.056	0.043
-0.525	-0.814	-0.288	0.669	-0.119	-0.55	0.281	-0.05	0.092	0.02	0.057	0.044
-0.526	-0.81	-0.284	0.667	-0.121	-0.547	0.287	-0.044	0.099	0.026	0.06	0.048
-0.503	-0.797	-0.294	0.65	-0.104	-0.545	0.293	-0.043	0.101	0.03	0.063	0.052
-0.494	-0.799	-0.304	0.646	-0.095	-0.551	0.266	-0.044	0.1	0.034	0.068	0.058
-0.5	-0.802	-0.302	0.651	-0.099	-0.552	0.262	-0.047	0.098	0.033	0.07	0.059
-0.493	-0.801	-0.308	0.647	-0.092	-0.554	0.261	-0.051	0.095	0.034	0.07	0.06
-0.484	-0.793	-0.309	0.639	-0.087	-0.551	0.241	-0.047	0.104	0.043	0.079	0.068
-0.482	-0.784	-0.301	0.633	-0.09	-0.542	0.235	-0.049	0.102	0.044	0.082	0.072
-0.487	-0.78	-0.293	0.633	-0.097	-0.536	0.218	-0.05	0.102	0.048	0.088	0.081
-0.492	-0.778	-0.286	0.635	-0.102	-0.532	0.225	-0.041	0.111	0.056	0.096	0.088
-0.484	-0.779	-0.295	0.631	-0.095	-0.537	0.222	-0.043	0.107	0.051	0.092	0.085
-0.467	-0.78	-0.314	0.623	-0.076	-0.546	0.184	-0.055	0.096	0.043	0.088	0.081
-0.463	-0.786	-0.324	0.625	-0.07	-0.555	0.166	-0.058	0.092	0.042	0.087	0.081
-0.468	-0.791	-0.324	0.629	-0.072	-0.557	0.157	-0.054	0.091	0.041	0.087	0.083
-0.467	-0.798	-0.332	0.632	-0.068	-0.565	0.141	-0.064	0.084	0.034	0.083	0.081
-0.453	-0.793	-0.34	0.623	-0.057	-0.567	0.121	-0.061	0.083	0.034	0.084	0.081
-0.453	-0.791	-0.339	0.622	-0.057	-0.565	0.108	-0.06	0.077	0.029	0.081	0.079
-0.448	-0.793	-0.346	0.621	-0.051	-0.57	0.104	-0.064	0.075	0.027	0.08	0.077
-0.444	-0.798	-0.354	0.621	-0.044	-0.576	0.103	-0.057	0.077	0.028	0.081	0.079
-0.446	-0.805	-0.359	0.625	-0.043	-0.582	0.105	-0.051	0.077	0.03	0.082	0.079
-0.44	-0.814	-0.375	0.626	-0.033	-0.594	0.11	-0.043	0.081	0.033	0.082	0.079
-0.447	-0.827	-0.381	0.636	-0.033	-0.604	0.107	-0.049	0.074	0.026	0.076	0.07
-0.453	-0.827	-0.374	0.64	-0.04	-0.601	0.113	-0.041	0.077	0.029	0.079	0.072
-0.462	-0.837	-0.375	0.649	-0.043	-0.606	0.122	-0.037	0.083	0.032	0.081	0.075
-0.442	-0.83	-0.388	0.635	-0.027	-0.609	0.118	-0.036	0.084	0.035	0.084	0.077
-0.428	-0.824	-0.396	0.626	-0.016	-0.61	0.117	-0.029	0.087	0.041	0.086	0.08
-0.436	-0.833	-0.397	0.634	-0.02	-0.615	0.113	-0.029	0.087	0.039	0.085	0.076
-0.429	-0.828	-0.4	0.628	-0.015	-0.614	0.118	-0.019	0.095	0.044	0.088	0.079
-0.434	-0.833	-0.399	0.633	-0.018	-0.616	0.133	-0.017	0.096	0.042	0.086	0.075
-0.435	-0.834	-0.398	0.634	-0.019	-0.616	0.131	-0.021	0.091	0.04	0.084	0.074
-0.434	-0.837	-0.403	0.635	-0.015	-0.62	0.128	-0.026	0.095	0.042	0.085	0.075
-0.433	-0.833	-0.399	0.633	-0.018	-0.616	0.129	-0.02	0.093	0.04	0.085	0.075
-0.435	-0.827	-0.392	0.631	-0.022	-0.609	0.139	-0.009	0.096	0.043	0.088	0.079
-0.428	-0.83	-0.402	0.628	-0.013	-0.615	0.135	-0.011	0.096	0.041	0.088	0.077
-0.425	-0.829	-0.404	0.627	-0.011	-0.616	0.126	-0.015	0.091	0.038	0.088	0.076
-0.428	-0.83	-0.403	0.628	-0.013	-0.616	0.126	-0.012	0.095	0.041	0.089	0.077
-0.423	-0.829	-0.406	0.625	-0.009	-0.617	0.123	-0.011	0.098	0.043	0.089	0.08
-0.424	-0.83	-0.406	0.626	-0.009	-0.618	0.13	-0.007	0.099	0.043	0.089	0.081
-0.426	-0.831	-0.404	0.628	-0.011	-0.617	0.134	-0.006	0.089	0.036	0.086	0.079
-0.434	-0.842	-0.407	0.638	-0.013	-0.624	0.133	-0.013	0.088	0.035	0.084	0.074
-0.422	-0.841	-0.419	0.631	-0.002	-0.63	0.135	-0.01	0.096	0.042	0.087	0.079
-0.419	-0.833	-0.413	0.625	-0.003	-0.623	0.144	-0.003	0.093	0.042	0.089	0.083
-0.428	-0.837	-0.408	0.632	-0.01	-0.623	0.14	-0.004	0.096	0.043	0.089	0.083
-0.422	-0.84	-0.417	0.631	-0.003	-0.628	0.135	-0.006	0.093	0.042	0.088	0.082
-0.427	-0.848	-0.42	0.637	-0.004	-0.633	0.147	-0.005	0.089	0.041	0.083	0.079
-0.432	-0.851	-0.418	0.641	-0.007	-0.634	0.139	-0.008	0.089	0.042	0.084	0.079
-0.431	-0.85	-0.418	0.64	-0.006	-0.633	0.135	-0.013	0.087	0.037	0.084	0.078
-0.425	-0.846	-0.42	0.635	-0.002	-0.633	0.144	-0.015	0.086	0.036	0.08	0.077
-0.413	-0.838	-0.424	0.625	0.005	-0.63	0.14	-0.007	0.09	0.04	0.084	0.081
-0.425	-0.845	-0.419	0.635	-0.004	-0.631	0.138	-0.002	0.095	0.04	0.084	0.081
-0.438	-0.843	-0.405	0.64	-0.017	-0.624	0.138	-0.013	0.086	0.033	0.078	0.076
-0.437	-0.839	-0.402	0.637	-0.018	-0.62	0.133	-0.019	0.082	0.029	0.075	0.072
-0.438	-0.839	-0.401	0.638	-0.018	-0.62	0.126	-0.022	0.08	0.025	0.072	0.07
-0.431	-0.834	-0.403	0.632	-0.015	-0.618	0.128	-0.022	0.077	0.024	0.071	0.07
-0.431	-0.834	-0.403	0.632	-0.014	-0.618	0.131	-0.027	0.075	0.021	0.069	0.068
-0.432	-0.828	-0.396	0.629	-0.018	-0.611	0.133	-0.026	0.075	0.019	0.068	0.067
-0.433	-0.829	-0.396	0.631	-0.019	-0.612	0.135	-0.021	0.08	0.021	0.071	0.069
-0.439	-0.829	-0.39	0.633	-0.024	-0.609	0.131	-0.026	0.077	0.018	0.069	0.067
-0.435	-0.829	-0.394	0.631	-0.021	-0.611	0.128	-0.026	0.074	0.017	0.066	0.068
-0.434	-0.83	-0.396	0.631	-0.019	-0.612	0.132	-0.026	0.075	0.018	0.066	0.069
-0.434	-0.827	-0.393	0.63	-0.021	-0.61	0.124	-0.028	0.075	0.018	0.065	0.066
-0.434	-0.831	-0.396	0.632	-0.019	-0.613	0.122	-0.024	0.077	0.02	0.065	0.065
-0.441	-0.829	-0.388	0.634	-0.026	-0.608	0.138	-0.022	0.079	0.022	0.068	0.067
-0.443	-0.835	-0.393	0.638	-0.025	-0.614	0.137	-0.023	0.079	0.022	0.068	0.068
-0.436	-0.84	-0.403	0.638	-0.017	-0.621	0.14	-0.025	0.079	0.024	0.067	0.068
-0.43	-0.84	-0.41	0.635	-0.01	-0.625	0.136	-0.022	0.08	0.026	0.07	0.07
-0.441	-0.848	-0.407	0.644	-0.017	-0.627	0.133	-0.018	0.082	0.029	0.071	0.07
-0.443	-0.845	-0.402	0.643	-0.021	-0.624	0.134	-0.02	0.082	0.027	0.071	0.069
-0.438	-0.836	-0.399	0.636	-0.019	-0.617	0.139	-0.019	0.086	0.029	0.073	0.07
-0.44	-0.836	-0.397	0.637	-0.021	-0.616	0.144	-0.017	0.085	0.029	0.073	0.07
-0.43	-0.841	-0.41	0.635	-0.01	-0.625	0.125	-0.029	0.076	0.021	0.068	0.066
-0.435	-0.844	-0.408	0.639	-0.014	-0.625	0.126	-0.032	0.073	0.018	0.065	0.064
-0.443	-0.85	-0.407	0.646	-0.018	-0.628	0.121	-0.033	0.071	0.015	0.064	0.061
-0.428	-0.844	-0.415	0.636	-0.006	-0.629	0.116	-0.046	0.066	0.009	0.06	0.059
-0.424	-0.839	-0.413	0.631	-0.005	-0.626	0.13	-0.034	0.071	0.013	0.064	0.062
-0.42	-0.841	-0.42	0.63	0	-0.63	0.12	-0.032	0.069	0.011	0.062	0.061
-0.419	-0.836	-0.416	0.627	-0.002	-0.626	0.12	-0.042	0.066	0.01	0.062	0.061
-0.428	-0.837	-0.408	0.632	-0.01	-0.623	0.124	-0.036	0.071	0.013	0.065	0.064
-0.423	-0.834	-0.41	0.628	-0.006	-0.622	0.118	-0.038	0.068	0.012	0.062	0.061
-0.424	-0.841	-0.416	0.632	-0.004	-0.628	0.122	-0.041	0.064	0.008	0.059	0.057
-0.42	-0.838	-0.417	0.629	-0.002	-0.627	0.127	-0.041	0.065	0.01	0.059	0.058
-0.422	-0.835	-0.412	0.628	-0.005	-0.623	0.127	-0.043	0.062	0.007	0.057	0.054
-0.436	-0.847	-0.41	0.641	-0.013	-0.628	0.129	-0.041	0.063	0.006	0.056	0.051
-0.436	-0.841	-0.405	0.638	-0.015	-0.623	0.125	-0.037	0.067	0.011	0.059	0.054
-0.434	-0.844	-0.409	0.638	-0.013	-0.625	0.13	-0.036	0.069	0.012	0.059	0.054
-0.444	-0.853	-0.409	0.648	-0.018	-0.631	0.141	-0.038	0.07	0.01	0.056	0.051
-0.443	-0.854	-0.41	0.648	-0.017	-0.631	0.135	-0.04	0.067	0.01	0.056	0.051
-0.442	-0.852	-0.41	0.646	-0.015	-0.631	0.123	-0.04	0.065	0.01	0.056	0.05
-0.448	-0.855	-0.406	0.651	-0.021	-0.63	0.128	-0.042	0.064	0.007	0.052	0.046
-0.441	-0.854	-0.412	0.646	-0.014	-0.632	0.123	-0.043	0.064	0.005	0.052	0.043
-0.438	-0.85	-0.412	0.643	-0.013	-0.63	0.118	-0.045	0.061	0.003	0.051	0.043
-0.443	-0.851	-0.407	0.646	-0.018	-0.628	0.131	-0.043	0.062	0.005	0.052	0.044
-0.448	-0.853	-0.405	0.649	-0.021	-0.628	0.13	-0.046	0.06	0.002	0.049	0.041
-0.448	-0.844	-0.397	0.645	-0.025	-0.62	0.127	-0.048	0.059	-0.003	0.044	0.041
-0.443	-0.839	-0.396	0.64	-0.024	-0.617	0.118	-0.048	0.059	-0.004	0.045	0.04
-0.441	-0.838	-0.397	0.639	-0.022	-0.618	0.114	-0.049	0.056	-0.006	0.043	0.038
-0.444	-0.834	-0.391	0.638	-0.026	-0.612	0.128	-0.045	0.058	-0.005	0.042	0.037
-0.454	-0.844	-0.39	0.648	-0.033	-0.617	0.128	-0.05	0.053	-0.011	0.037	0.034
-0.45	-0.839	-0.389	0.644	-0.03	-0.614	0.119	-0.049	0.058	-0.008	0.04	0.037
-0.434	-0.828	-0.394	0.63	-0.02	-0.611	0.124	-0.042	0.061	-0.001	0.045	0.043
-0.439	-0.83	-0.391	0.634	-0.024	-0.61	0.129	-0.043	0.061	-0.002	0.046	0.043
-0.442	-0.829	-0.387	0.635	-0.027	-0.608	0.129	-0.04	0.068	0.004	0.049	0.045
-0.436	-0.825	-0.389	0.63	-0.024	-0.607	0.126	-0.042	0.065	0.005	0.049	0.047
-0.433	-0.821	-0.388	0.627	-0.023	-0.604	0.126	-0.04	0.067	0.008	0.051	0.052
-0.428	-0.819	-0.391	0.624	-0.019	-0.604	0.126	-0.043	0.067	0.012	0.052	0.052
-0.427	-0.817	-0.39	0.622	-0.018	-0.604	0.124	-0.043	0.068	0.013	0.052	0.053
-0.427	-0.815	-0.388	0.621	-0.019	-0.602	0.128	-0.04	0.07	0.015	0.056	0.058
-0.431	-0.814	-0.382	0.623	-0.025	-0.597	0.125	-0.042	0.067	0.013	0.054	0.056
-0.428	-0.812	-0.385	0.62	-0.021	-0.599	0.124	-0.032	0.074	0.017	0.057	0.058
-0.415	-0.807	-0.392	0.611	-0.011	-0.599	0.124	-0.03	0.074	0.018	0.058	0.061
-0.414	-0.807	-0.393	0.611	-0.011	-0.6	0.121	-0.035	0.068	0.015	0.057	0.06
-0.424	-0.815	-0.39	0.619	-0.017	-0.602	0.126	-0.034	0.07	0.015	0.059	0.062
-0.421	-0.808	-0.388	0.615	-0.017	-0.598	0.124	-0.038	0.069	0.013	0.059	0.065
-0.409	-0.799	-0.39	0.604	-0.009	-0.595	0.116	-0.045	0.069	0.013	0.061	0.067
-0.414	-0.804	-0.39	0.61	-0.013	-0.597	0.116	-0.038	0.072	0.015	0.064	0.069
-0.422	-0.81	-0.388	0.616	-0.017	-0.599	0.115	-0.044	0.068	0.013	0.061	0.068
-0.421	-0.806	-0.385	0.613	-0.018	-0.596	0.118	-0.044	0.068	0.013	0.06	0.066
-0.418	-0.807	-0.39	0.613	-0.015	-0.599	0.117	-0.041	0.066	0.009	0.057	0.064
-0.415	-0.814	-0.399	0.614	-0.008	-0.606	0.114	-0.043	0.062	0.004	0.051	0.059
-0.411	-0.816	-0.404	0.614	-0.004	-0.61	0.108	-0.04	0.063	0.005	0.051	0.057
-0.404	-0.804	-0.401	0.604	-0.002	-0.602	0.108	-0.044	0.065	0.008	0.054	0.059
-0.4	-0.805	-0.405	0.603	0.003	-0.605	0.12	-0.046	0.062	0.006	0.052	0.058
-0.394	-0.815	-0.421	0.604	0.013	-0.618	0.116	-0.045	0.06	0.008	0.051	0.058
-0.394	-0.812	-0.418	0.603	0.012	-0.615	0.122	-0.043	0.065	0.011	0.055	0.061
-0.403	-0.82	-0.417	0.611	0.007	-0.619	0.119	-0.041	0.065	0.011	0.054	0.062
-0.404	-0.82	-0.417	0.612	0.007	-0.618	0.119	-0.039	0.068	0.015	0.056	0.064
-0.402	-0.819	-0.417	0.61	0.008	-0.618	0.123	-0.036	0.07	0.018	0.059	0.068
-0.404	-0.828	-0.424	0.616	0.01	-0.625	0.115	-0.043	0.063	0.011	0.056	0.064
-0.409	-0.834	-0.424	0.622	0.007	-0.628	0.115	-0.051	0.056	0.004	0.048	0.056
-0.395	-0.826	-0.431	0.61	0.018	-0.628	0.11	-0.046	0.059	0.006	0.05	0.059
-0.388	-0.816	-0.428	0.602	0.021	-0.622	0.119	-0.043	0.062	0.007	0.051	0.061
-0.394	-0.82	-0.425	0.607	0.016	-0.622	0.117	-0.043	0.067	0.009	0.053	0.062
-0.398	-0.822	-0.424	0.61	0.013	-0.623	0.106	-0.048	0.063	0.004	0.049	0.059
-0.409	-0.823	-0.414	0.616	0.003	-0.619	0.114	-0.056	0.05	-0.002	0.045	0.057
-0.41	-0.821	-0.411	0.616	0	-0.616	0.113	-0.049	0.054	0.001	0.05	0.059
-0.406	-0.82	-0.413	0.613	0.004	-0.616	0.111	-0.052	0.051	-0.008	0.042	0.05
-0.414	-0.821	-0.406	0.618	-0.004	-0.614	0.106	-0.061	0.047	-0.012	0.036	0.043
-0.424	-0.819	-0.395	0.621	-0.015	-0.607	0.111	-0.055	0.054	-0.007	0.04	0.046
-0.426	-0.814	-0.388	0.62	-0.019	-0.601	0.116	-0.054	0.052	-0.009	0.04	0.047
-0.422	-0.813	-0.391	0.617	-0.015	-0.602	0.116	-0.054	0.055	-0.008	0.042	0.048
-0.423	-0.824	-0.401	0.623	-0.011	-0.612	0.118	-0.056	0.053	-0.009	0.04	0.048
-0.43	-0.834	-0.404	0.632	-0.013	-0.619	0.117	-0.062	0.047	-0.015	0.035	0.043
-0.425	-0.832	-0.406	0.628	-0.009	-0.619	0.126	-0.051	0.054	-0.009	0.04	0.048
-0.421	-0.839	-0.417	0.629	-0.002	-0.628	0.127	-0.048	0.059	-0.005	0.045	0.054
-0.423	-0.852	-0.428	0.637	0.002	-0.639	0.127	-0.043	0.059	-0.006	0.043	0.054
-0.424	-0.859	-0.433	0.641	0.004	-0.645	0.129	-0.044	0.056	-0.006	0.042	0.052
-0.428	-0.836	-0.408	0.632	-0.01	-0.622	0.125	-0.056	0.052	-0.013	0.036	0.046
-0.42	-0.809	-0.39	0.615	-0.015	-0.6	0.112	-0.058	0.044	-0.018	0.029	0.041
-0.429	-0.827	-0.397	0.628	-0.017	-0.612	0.102	-0.059	0.046	-0.017	0.03	0.04
-0.44	-0.836	-0.396	0.637	-0.022	-0.616	0.127	-0.053	0.056	-0.009	0.035	0.045
-0.417	-0.832	-0.414	0.625	-0.002	-0.623	0.124	-0.056	0.05	-0.013	0.034	0.045
-0.421	-0.837	-0.416	0.628	-0.003	-0.626	0.118	-0.054	0.052	-0.013	0.036	0.046
-0.431	-0.837	-0.406	0.633	-0.013	-0.621	0.12	-0.045	0.059	-0.007	0.04	0.048
-0.427	-0.831	-0.405	0.628	-0.011	-0.618	0.121	-0.048	0.056	-0.011	0.037	0.045
-0.425	-0.828	-0.403	0.626	-0.011	-0.615	0.118	-0.053	0.056	-0.011	0.038	0.047
-0.423	-0.837	-0.413	0.63	-0.005	-0.625	0.108	-0.057	0.051	-0.015	0.035	0.045
-0.426	-0.837	-0.41	0.631	-0.008	-0.624	0.109	-0.059	0.046	-0.018	0.033	0.042
-0.435	-0.833	-0.398	0.634	-0.018	-0.616	0.113	-0.056	0.052	-0.013	0.036	0.045
-0.429	-0.828	-0.399	0.628	-0.015	-0.613	0.104	-0.057	0.052	-0.014	0.037	0.047
-0.418	-0.822	-0.404	0.62	-0.007	-0.613	0.097	-0.059	0.049	-0.015	0.038	0.048
-0.423	-0.822	-0.399	0.622	-0.012	-0.61	0.12	-0.056	0.053	-0.01	0.04	0.05
-0.424	-0.825	-0.401	0.624	-0.011	-0.613	0.115	-0.051	0.055	-0.009	0.039	0.051
-0.43	-0.832	-0.402	0.631	-0.014	-0.617	0.107	-0.055	0.052	-0.011	0.037	0.05
-0.437	-0.835	-0.398	0.636	-0.019	-0.616	0.117	-0.055	0.053	-0.011	0.039	0.05
-0.432	-0.829	-0.398	0.63	-0.018	-0.613	0.114	-0.049	0.059	-0.007	0.042	0.052
-0.436	-0.832	-0.395	0.633	-0.021	-0.613	0.115	-0.055	0.056	-0.009	0.038	0.051
-0.433	-0.834	-0.401	0.633	-0.016	-0.617	0.118	-0.053	0.056	-0.008	0.04	0.053
-0.424	-0.826	-0.402	0.625	-0.011	-0.614	0.119	-0.05	0.061	-0.003	0.044	0.059
-0.429	-0.83	-0.401	0.629	-0.015	-0.615	0.118	-0.053	0.06	-0.004	0.042	0.056
-0.427	-0.834	-0.407	0.63	-0.01	-0.621	0.121	-0.05	0.06	-0.005	0.042	0.055
-0.423	-0.829	-0.405	0.625	-0.009	-0.617	0.124	-0.051	0.06	-0.006	0.04	0.054
-0.426	-0.824	-0.398	0.625	-0.015	-0.61	0.118	-0.055	0.059	-0.006	0.041	0.054
-0.422	-0.814	-0.392	0.618	-0.015	-0.603	0.124	-0.053	0.06	-0.004	0.043	0.056
-0.417	-0.815	-0.398	0.616	-0.01	-0.606	0.126	-0.053	0.059	-0.009	0.04	0.054
-0.417	-0.815	-0.398	0.616	-0.01	-0.606	0.125	-0.053	0.059	-0.009	0.041	0.055
-0.417	-0.809	-0.392	0.613	-0.013	-0.6	0.124	-0.053	0.059	-0.007	0.041	0.055
-0.419	-0.809	-0.39	0.615	-0.015	-0.599	0.106	-0.058	0.056	-0.013	0.04	0.051
-0.421	-0.817	-0.396	0.619	-0.013	-0.606	0.114	-0.065	0.05	-0.018	0.033	0.045
-0.429	-0.822	-0.393	0.625	-0.018	-0.607	0.123	-0.061	0.051	-0.017	0.032	0.045
-0.42	-0.805	-0.386	0.613	-0.017	-0.596	0.115	-0.059	0.054	-0.013	0.038	0.051
-0.412	-0.803	-0.391	0.608	-0.011	-0.597	0.117	-0.064	0.052	-0.016	0.036	0.05
-0.42	-0.808	-0.389	0.614	-0.016	-0.599	0.122	-0.06	0.053	-0.015	0.036	0.05
-0.417	-0.809	-0.392	0.613	-0.013	-0.601	0.125	-0.057	0.053	-0.013	0.035	0.051
-0.427	-0.813	-0.386	0.62	-0.021	-0.599	0.124	-0.064	0.052	-0.015	0.034	0.05
-0.43	-0.806	-0.376	0.618	-0.027	-0.591	0.125	-0.061	0.057	-0.009	0.04	0.054
-0.438	-0.804	-0.366	0.621	-0.035	-0.585	0.127	-0.053	0.062	-0.004	0.042	0.057
-0.433	-0.801	-0.369	0.617	-0.032	-0.585	0.127	-0.058	0.059	-0.007	0.041	0.057
-0.427	-0.805	-0.378	0.617	-0.025	-0.592	0.119	-0.071	0.048	-0.016	0.035	0.051
-0.438	-0.813	-0.376	0.625	-0.031	-0.594	0.117	-0.074	0.044	-0.019	0.032	0.048
-0.425	-0.806	-0.382	0.616	-0.021	-0.594	0.12	-0.071	0.048	-0.013	0.037	0.053
-0.428	-0.802	-0.374	0.615	-0.027	-0.588	0.118	-0.074	0.043	-0.018	0.035	0.051
-0.429	-0.793	-0.365	0.611	-0.032	-0.579	0.112	-0.073	0.046	-0.017	0.037	0.052
-0.431	-0.787	-0.356	0.609	-0.037	-0.572	0.115	-0.069	0.057	-0.011	0.041	0.057
-0.442	-0.79	-0.348	0.616	-0.046	-0.569	0.124	-0.069	0.053	-0.014	0.04	0.055
-0.431	-0.785	-0.354	0.608	-0.038	-0.57	0.114	-0.072	0.049	-0.017	0.037	0.055
-0.418	-0.779	-0.361	0.599	-0.029	-0.57	0.108	-0.073	0.051	-0.017	0.037	0.055
-0.424	-0.786	-0.362	0.605	-0.031	-0.574	0.102	-0.082	0.045	-0.02	0.035	0.052
-0.426	-0.789	-0.363	0.608	-0.032	-0.576	0.105	-0.085	0.04	-0.024	0.034	0.049
-0.426	-0.788	-0.362	0.607	-0.032	-0.575	0.108	-0.087	0.036	-0.028	0.033	0.049
-0.415	-0.786	-0.37	0.601	-0.022	-0.578	0.091	-0.084	0.04	-0.023	0.036	0.052
-0.411	-0.781	-0.369	0.596	-0.021	-0.575	0.104	-0.084	0.037	-0.022	0.037	0.054
-0.424	-0.781	-0.356	0.603	-0.034	-0.569	0.106	-0.088	0.036	-0.021	0.039	0.054
-0.427	-0.789	-0.362	0.608	-0.032	-0.576	0.102	-0.076	0.047	-0.013	0.045	0.059
-0.43	-0.796	-0.366	0.613	-0.032	-0.581	0.114	-0.081	0.043	-0.017	0.041	0.058
-0.424	-0.793	-0.369	0.609	-0.028	-0.581	0.117	-0.077	0.047	-0.01	0.048	0.061
-0.436	-0.786	-0.35	0.611	-0.043	-0.568	0.127	-0.064	0.064	0.003	0.058	0.07
-0.455	-0.779	-0.325	0.617	-0.065	-0.551	0.132	-0.057	0.071	0.006	0.059	0.071
-0.45	-0.782	-0.332	0.616	-0.059	-0.556	0.132	-0.051	0.071	0.005	0.055	0.064
-0.455	-0.778	-0.324	0.617	-0.065	-0.551	0.148	-0.036	0.091	0.019	0.061	0.067
-0.459	-0.77	-0.312	0.615	-0.073	-0.541	0.158	-0.009	0.119	0.038	0.075	0.073
-0.469	-0.773	-0.303	0.621	-0.083	-0.537	0.174	0.021	0.15	0.058	0.084	0.075
-0.471	-0.77	-0.299	0.621	-0.086	-0.534	0.186	0.058	0.183	0.085	0.097	0.078
-0.458	-0.763	-0.305	0.611	-0.076	-0.534	0.182	0.095	0.215	0.111	0.114	0.086
-0.476	-0.766	-0.29	0.621	-0.093	-0.528	0.218	0.139	0.253	0.137	0.129	0.093
-0.483	-0.769	-0.286	0.626	-0.098	-0.528	0.245	0.189	0.296	0.171	0.15	0.102
-0.478	-0.762	-0.284	0.621	-0.098	-0.523	0.246	0.222	0.333	0.202	0.17	0.115
-0.489	-0.754	-0.265	0.621	-0.112	-0.509	0.262	0.252	0.368	0.232	0.19	0.126
-0.489	-0.734	-0.244	0.611	-0.122	-0.488	0.277	0.292	0.413	0.276	0.225	0.151
-0.478	-0.708	-0.23	0.593	-0.124	-0.469	0.278	0.31	0.444	0.314	0.26	0.181
-0.457	-0.684	-0.227	0.57	-0.115	-0.456	0.269	0.332	0.475	0.358	0.309	0.224
-0.451	-0.665	-0.214	0.558	-0.118	-0.44	0.266	0.32	0.484	0.386	0.347	0.261
-0.449	-0.656	-0.208	0.552	-0.12	-0.432	0.254	0.294	0.477	0.399	0.376	0.29
-0.451	-0.645	-0.195	0.547	-0.128	-0.419	0.229	0.283	0.477	0.429	0.429	0.35
-0.431	-0.62	-0.188	0.525	-0.121	-0.404	0.222	0.275	0.488	0.469	0.489	0.414
-0.412	-0.588	-0.175	0.499	-0.118	-0.381	0.215	0.28	0.505	0.506	0.543	0.47
-0.392	-0.561	-0.169	0.476	-0.112	-0.365	0.195	0.269	0.517	0.551	0.61	0.542
-0.357	-0.536	-0.178	0.447	-0.089	-0.357	0.171	0.267	0.54	0.611	0.696	0.632
-0.339	-0.517	-0.179	0.427	-0.08	-0.348	0.154	0.261	0.557	0.658	0.771	0.715
-0.307	-0.507	-0.201	0.407	-0.053	-0.353	0.14	0.262	0.581	0.722	0.863	0.811
-0.264	-0.488	-0.225	0.376	-0.019	-0.356	0.115	0.263	0.614	0.808	0.99	0.949
-0.204	-0.464	-0.26	0.334	0.028	-0.361	0.077	0.249	0.639	0.895	1.123	1.093
-0.146	-0.434	-0.288	0.29	0.071	-0.361	0.037	0.243	0.669	0.981	1.25	1.23
-0.096	-0.403	-0.306	0.249	0.105	-0.354	0.005	0.233	0.697	1.057	1.365	1.355
-0.053	-0.394	-0.341	0.224	0.143	-0.367	-0.013	0.231	0.717	1.113	1.449	1.446
-0.022	-0.388	-0.366	0.205	0.172	-0.377	-0.032	0.226	0.727	1.153	1.518	1.524
0.006	-0.381	-0.387	0.187	0.197	-0.384	-0.06	0.211	0.732	1.196	1.587	1.6
0.05	-0.377	-0.427	0.164	0.238	-0.402	-0.086	0.192	0.725	1.228	1.646	1.667
0.099	-0.359	-0.458	0.13	0.279	-0.408	-0.123	0.166	0.705	1.237	1.685	1.718
0.136	-0.351	-0.486	0.107	0.311	-0.418	-0.167	0.143	0.678	1.232	1.704	1.753
0.167	-0.345	-0.512	0.089	0.34	-0.428	-0.184	0.132	0.649	1.22	1.712	1.773
0.188	-0.341	-0.529	0.076	0.358	-0.435	-0.2	0.122	0.621	1.206	1.712	1.781
0.208	-0.348	-0.556	0.07	0.382	-0.452	-0.212	0.117	0.593	1.172	1.683	1.759
0.203	-0.349	-0.552	0.072	0.378	-0.451	-0.211	0.106	0.568	1.127	1.631	1.712
0.191	-0.353	-0.544	0.081	0.367	-0.449	-0.207	0.098	0.533	1.073	1.579	1.67
0.169	-0.352	-0.521	0.091	0.345	-0.436	-0.187	0.091	0.498	0.998	1.492	1.595
0.127	-0.345	-0.471	0.109	0.299	-0.408	-0.181	0.08	0.447	0.884	1.355	1.468
0.092	-0.339	-0.431	0.123	0.262	-0.385	-0.184	0.051	0.367	0.746	1.212	1.349
0.052	-0.335	-0.388	0.141	0.22	-0.361	-0.185	-0.004	0.276	0.595	1.054	1.212
0.012	-0.352	-0.364	0.17	0.188	-0.358	-0.148	-0.028	0.184	0.415	0.847	1.024
-0.011	-0.387	-0.376	0.199	0.182	-0.382	-0.114	-0.041	0.099	0.258	0.662	0.856
-0.029	-0.442	-0.413	0.235	0.192	-0.427	-0.108	-0.059	0.009	0.113	0.49	0.697
-0.068	-0.514	-0.446	0.29	0.189	-0.479	-0.059	-0.062	-0.059	-0.03	0.305	0.517
-0.124	-0.585	-0.462	0.354	0.169	-0.523	-0.021	-0.057	-0.104	-0.149	0.134	0.338
-0.199	-0.648	-0.449	0.423	0.125	-0.548	0.028	-0.057	-0.168	-0.304	-0.079	0.121
-0.277	-0.707	-0.429	0.491	0.076	-0.568	0.092	-0.079	-0.257	-0.501	-0.333	-0.129
-0.334	-0.767	-0.433	0.55	0.05	-0.6	0.134	-0.1	-0.337	-0.662	-0.541	-0.335
-0.406	-0.829	-0.422	0.617	0.008	-0.625	0.186	-0.075	-0.362	-0.764	-0.69	-0.488
-0.474	-0.887	-0.413	0.68	-0.03	-0.65	0.248	-0.04	-0.381	-0.858	-0.837	-0.643
-0.568	-0.915	-0.348	0.742	-0.11	-0.631	0.315	-0.011	-0.388	-0.924	-0.935	-0.749
-0.671	-0.929	-0.258	0.8	-0.206	-0.593	0.388	0.046	-0.358	-0.949	-0.987	-0.803
-0.738	-0.976	-0.238	0.856	-0.249	-0.607	0.433	0.047	-0.382	-1.004	-1.063	-0.878
-0.769	-1.001	-0.232	0.885	-0.269	-0.616	0.438	0.044	-0.401	-1.042	-1.113	-0.928
-0.785	-1.003	-0.217	0.894	-0.284	-0.61	0.448	0.024	-0.41	-1.055	-1.133	-0.951
-0.798	-1.024	-0.226	0.911	-0.286	-0.625	0.443	-0.056	-0.463	-1.079	-1.145	-0.961
-0.795	-1.05	-0.255	0.922	-0.27	-0.652	0.435	-0.076	-0.48	-1.071	-1.126	-0.946
-0.808	-1.084	-0.276	0.946	-0.267	-0.679	0.459	-0.054	-0.465	-1.042	-1.101	-0.936
-0.808	-1.091	-0.283	0.949	-0.263	-0.687	0.477	-0.007	-0.419	-0.989	-1.059	-0.91
-0.796	-1.084	-0.287	0.94	-0.254	-0.685	0.505	0.066	-0.343	-0.908	-0.99	-0.859
-0.79	-1.095	-0.304	0.943	-0.243	-0.7	0.535	0.129	-0.273	-0.826	-0.915	-0.803
-0.778	-1.083	-0.305	0.93	-0.236	-0.694	0.542	0.16	-0.221	-0.751	-0.838	-0.741
-0.764	-1.058	-0.294	0.911	-0.235	-0.676	0.547	0.191	-0.168	-0.68	-0.765	-0.683
-0.756	-1.036	-0.28	0.896	-0.238	-0.657	0.551	0.218	-0.121	-0.622	-0.709	-0.639
-0.755	-1.004	-0.248	0.879	-0.253	-0.625	0.547	0.237	-0.074	-0.561	-0.646	-0.588
-0.748	-0.961	-0.213	0.854	-0.268	-0.587	0.542	0.248	-0.044	-0.505	-0.584	-0.534
-0.733	-0.914	-0.181	0.824	-0.276	-0.547	0.536	0.263	-0.009	-0.45	-0.521	-0.478
-0.715	-0.882	-0.168	0.798	-0.274	-0.524	0.532	0.282	0.029	-0.394	-0.46	-0.426
-0.7	-0.87	-0.17	0.785	-0.265	-0.52	0.525	0.295	0.043	-0.36	-0.421	-0.391
-0.676	-0.868	-0.192	0.771	-0.242	-0.529	0.485	0.294	0.04	-0.336	-0.384	-0.356
-0.654	-0.873	-0.217	0.763	-0.218	-0.544	0.436	0.244	-0.002	-0.331	-0.357	-0.328
-0.639	-0.874	-0.234	0.756	-0.203	-0.554	0.385	0.207	-0.04	-0.332	-0.341	-0.306
-0.626	-0.867	-0.24	0.747	-0.194	-0.553	0.361	0.197	-0.049	-0.318	-0.321	-0.286
-0.623	-0.869	-0.246	0.746	-0.189	-0.557	0.351	0.177	-0.058	-0.306	-0.302	-0.27
-0.602	-0.871	-0.27	0.736	-0.166	-0.57	0.317	0.175	-0.063	-0.289	-0.278	-0.245
-0.586	-0.872	-0.285	0.729	-0.15	-0.579	0.297	0.189	-0.046	-0.262	-0.251	-0.223
-0.576	-0.875	-0.299	0.726	-0.139	-0.587	0.291	0.212	-0.014	-0.233	-0.226	-0.204
-0.551	-0.873	-0.321	0.712	-0.116	-0.597	0.286	0.246	0.021	-0.197	-0.198	-0.18
-0.545	-0.884	-0.338	0.715	-0.103	-0.611	0.281	0.27	0.05	-0.166	-0.172	-0.161
-0.53	-0.88	-0.349	0.705	-0.091	-0.614	0.281	0.292	0.084	-0.132	-0.145	-0.14
-0.517	-0.889	-0.372	0.703	-0.072	-0.63	0.273	0.305	0.113	-0.098	-0.115	-0.116
-0.511	-0.907	-0.397	0.709	-0.057	-0.651	0.265	0.303	0.134	-0.07	-0.089	-0.091
-0.501	-0.909	-0.408	0.705	-0.046	-0.658	0.251	0.28	0.139	-0.052	-0.07	-0.072
-0.504	-0.911	-0.407	0.707	-0.049	-0.658	0.224	0.229	0.12	-0.054	-0.067	-0.07
-0.503	-0.874	-0.37	0.689	-0.067	-0.622	0.192	0.18	0.102	-0.062	-0.071	-0.074
-0.499	-0.861	-0.361	0.679	-0.069	-0.611	0.169	0.137	0.086	-0.068	-0.072	-0.076
-0.491	-0.864	-0.372	0.677	-0.059	-0.618	0.158	0.108	0.083	-0.068	-0.067	-0.071
-0.485	-0.863	-0.378	0.674	-0.054	-0.62	0.142	0.085	0.077	-0.066	-0.063	-0.068
-0.481	-0.867	-0.386	0.673	-0.048	-0.626	0.143	0.063	0.07	-0.067	-0.064	-0.066
-0.48	-0.863	-0.383	0.671	-0.049	-0.623	0.14	0.063	0.08	-0.058	-0.055	-0.057
-0.479	-0.865	-0.386	0.671	-0.047	-0.625	0.142	0.04	0.072	-0.06	-0.054	-0.058
-0.476	-0.856	-0.38	0.666	-0.049	-0.618	0.142	0.021	0.068	-0.06	-0.052	-0.056
-0.468	-0.853	-0.385	0.66	-0.042	-0.619	0.133	0.009	0.067	-0.057	-0.046	-0.05
-0.47	-0.86	-0.39	0.664	-0.041	-0.625	0.135	0.004	0.073	-0.048	-0.037	-0.041
-0.485	-0.856	-0.371	0.67	-0.058	-0.613	0.139	0.009	0.08	-0.04	-0.03	-0.034
-0.477	-0.854	-0.377	0.665	-0.051	-0.615	0.129	-0.009	0.065	-0.049	-0.038	-0.043
-0.462	-0.851	-0.389	0.656	-0.036	-0.62	0.123	-0.001	0.071	-0.043	-0.035	-0.04
-0.464	-0.851	-0.386	0.657	-0.039	-0.618	0.131	0.004	0.073	-0.041	-0.031	-0.038
-0.475	-0.857	-0.382	0.666	-0.047	-0.619	0.141	0.002	0.072	-0.04	-0.029	-0.037
-0.47	-0.859	-0.389	0.664	-0.041	-0.624	0.133	0.005	0.075	-0.035	-0.025	-0.033
-0.465	-0.864	-0.4	0.664	-0.033	-0.631	0.126	-0.004	0.071	-0.04	-0.027	-0.035
-0.463	-0.857	-0.394	0.66	-0.035	-0.625	0.141	-0.003	0.073	-0.036	-0.025	-0.032
-0.47	-0.86	-0.39	0.664	-0.041	-0.624	0.136	-0.01	0.068	-0.04	-0.027	-0.033
-0.478	-0.863	-0.386	0.67	-0.046	-0.624	0.14	-0.015	0.065	-0.043	-0.026	-0.033
-0.464	-0.858	-0.395	0.66	-0.035	-0.626	0.13	-0.018	0.066	-0.041	-0.024	-0.03
-0.464	-0.863	-0.399	0.663	-0.033	-0.631	0.122	-0.022	0.061	-0.043	-0.024	-0.03
-0.474	-0.867	-0.393	0.67	-0.041	-0.629	0.136	-0.02	0.059	-0.044	-0.024	-0.029
-0.475	-0.867	-0.392	0.671	-0.042	-0.629	0.128	-0.028	0.057	-0.046	-0.026	-0.029
-0.477	-0.865	-0.387	0.671	-0.045	-0.625	0.123	-0.034	0.056	-0.047	-0.026	-0.03
-0.475	-0.869	-0.393	0.672	-0.041	-0.63	0.126	-0.032	0.057	-0.047	-0.024	-0.028
-0.475	-0.861	-0.385	0.667	-0.045	-0.622	0.139	-0.03	0.058	-0.043	-0.021	-0.022
-0.479	-0.86	-0.38	0.669	-0.05	-0.62	0.135	-0.03	0.057	-0.043	-0.022	-0.023
-0.477	-0.866	-0.39	0.671	-0.044	-0.627	0.121	-0.042	0.05	-0.048	-0.026	-0.029
-0.477	-0.863	-0.386	0.67	-0.046	-0.624	0.126	-0.046	0.045	-0.051	-0.03	-0.034
-0.478	-0.867	-0.389	0.672	-0.045	-0.627	0.135	-0.033	0.053	-0.045	-0.029	-0.033
-0.486	-0.872	-0.386	0.678	-0.051	-0.628	0.134	-0.035	0.052	-0.043	-0.03	-0.034
-0.483	-0.874	-0.39	0.678	-0.046	-0.631	0.127	-0.043	0.048	-0.049	-0.035	-0.04
-0.475	-0.864	-0.389	0.669	-0.043	-0.626	0.135	-0.036	0.054	-0.045	-0.03	-0.036
-0.48	-0.856	-0.376	0.668	-0.052	-0.616	0.137	-0.04	0.051	-0.044	-0.03	-0.034
-0.475	-0.858	-0.382	0.666	-0.047	-0.619	0.132	-0.043	0.05	-0.048	-0.034	-0.038
-0.479	-0.862	-0.382	0.67	-0.049	-0.622	0.134	-0.037	0.049	-0.047	-0.034	-0.037
-0.483	-0.864	-0.381	0.673	-0.051	-0.622	0.128	-0.048	0.044	-0.051	-0.038	-0.04
-0.476	-0.859	-0.383	0.667	-0.047	-0.621	0.124	-0.05	0.044	-0.051	-0.037	-0.04
-0.475	-0.855	-0.38	0.664	-0.048	-0.617	0.12	-0.05	0.043	-0.051	-0.036	-0.037
-0.475	-0.847	-0.371	0.661	-0.052	-0.609	0.121	-0.053	0.041	-0.053	-0.037	-0.037
-0.468	-0.837	-0.369	0.652	-0.05	-0.603	0.12	-0.052	0.043	-0.052	-0.035	-0.035
-0.473	-0.845	-0.371	0.659	-0.051	-0.608	0.114	-0.057	0.037	-0.058	-0.04	-0.041
-0.483	-0.854	-0.371	0.668	-0.056	-0.612	0.126	-0.056	0.038	-0.059	-0.043	-0.043
-0.478	-0.845	-0.366	0.661	-0.056	-0.606	0.123	-0.058	0.035	-0.062	-0.043	-0.043
-0.477	-0.846	-0.368	0.661	-0.054	-0.607	0.121	-0.061	0.029	-0.066	-0.047	-0.046
-0.477	-0.854	-0.377	0.665	-0.05	-0.615	0.121	-0.06	0.034	-0.065	-0.048	-0.048
-0.476	-0.856	-0.379	0.666	-0.049	-0.617	0.119	-0.062	0.03	-0.068	-0.051	-0.051
-0.471	-0.856	-0.385	0.663	-0.043	-0.621	0.122	-0.068	0.026	-0.069	-0.053	-0.053
-0.475	-0.861	-0.386	0.667	-0.044	-0.623	0.116	-0.07	0.024	-0.07	-0.054	-0.056
-0.485	-0.863	-0.378	0.674	-0.054	-0.62	0.122	-0.063	0.032	-0.061	-0.05	-0.052
-0.486	-0.857	-0.37	0.671	-0.058	-0.613	0.134	-0.059	0.035	-0.058	-0.045	-0.049
-0.485	-0.867	-0.382	0.676	-0.052	-0.624	0.128	-0.058	0.029	-0.063	-0.05	-0.053
-0.49	-0.876	-0.386	0.682	-0.052	-0.63	0.128	-0.059	0.032	-0.064	-0.051	-0.056
-0.49	-0.875	-0.385	0.682	-0.052	-0.63	0.131	-0.065	0.028	-0.066	-0.054	-0.06
-0.486	-0.872	-0.386	0.679	-0.05	-0.628	0.131	-0.066	0.025	-0.069	-0.057	-0.061
-0.487	-0.869	-0.382	0.678	-0.052	-0.625	0.132	-0.064	0.027	-0.069	-0.056	-0.06
-0.487	-0.87	-0.382	0.678	-0.053	-0.625	0.131	-0.065	0.025	-0.07	-0.057	-0.062
-0.486	-0.868	-0.382	0.676	-0.052	-0.625	0.129	-0.07	0.022	-0.075	-0.061	-0.067
-0.486	-0.865	-0.379	0.675	-0.054	-0.622	0.127	-0.072	0.02	-0.076	-0.061	-0.067
-0.487	-0.861	-0.374	0.674	-0.057	-0.618	0.129	-0.076	0.018	-0.08	-0.062	-0.068
-0.482	-0.855	-0.373	0.668	-0.054	-0.614	0.124	-0.077	0.018	-0.082	-0.064	-0.07
-0.484	-0.85	-0.365	0.667	-0.059	-0.607	0.126	-0.075	0.02	-0.081	-0.063	-0.069
-0.496	-0.855	-0.358	0.675	-0.069	-0.607	0.129	-0.076	0.018	-0.084	-0.065	-0.072
-0.504	-0.864	-0.359	0.683	-0.072	-0.611	0.129	-0.081	0.013	-0.09	-0.07	-0.078
-0.498	-0.862	-0.364	0.68	-0.067	-0.613	0.132	-0.082	0.013	-0.09	-0.071	-0.079
-0.498	-0.867	-0.368	0.682	-0.066	-0.617	0.133	-0.074	0.017	-0.088	-0.071	-0.078
-0.513	-0.873	-0.359	0.693	-0.077	-0.616	0.134	-0.08	0.013	-0.093	-0.077	-0.083
-0.51	-0.866	-0.356	0.688	-0.077	-0.611	0.129	-0.088	0.006	-0.097	-0.082	-0.086
-0.503	-0.867	-0.363	0.684	-0.07	-0.615	0.132	-0.081	0.009	-0.096	-0.081	-0.089
-0.5	-0.872	-0.371	0.686	-0.065	-0.622	0.139	-0.075	0.013	-0.095	-0.082	-0.089
-0.502	-0.876	-0.374	0.689	-0.064	-0.625	0.136	-0.076	0.011	-0.096	-0.084	-0.09
-0.518	-0.878	-0.36	0.699	-0.08	-0.619	0.143	-0.071	0.018	-0.086	-0.079	-0.086
-0.521	-0.876	-0.355	0.699	-0.083	-0.616	0.141	-0.073	0.018	-0.087	-0.077	-0.085
-0.512	-0.875	-0.362	0.694	-0.075	-0.618	0.141	-0.076	0.015	-0.091	-0.079	-0.089
-0.511	-0.878	-0.366	0.695	-0.072	-0.622	0.132	-0.077	0.015	-0.089	-0.08	-0.089
-0.516	-0.884	-0.367	0.7	-0.074	-0.625	0.132	-0.075	0.009	-0.096	-0.086	-0.095
-0.518	-0.879	-0.36	0.699	-0.079	-0.62	0.15	-0.075	0.013	-0.095	-0.086	-0.095
-0.505	-0.869	-0.363	0.687	-0.071	-0.616	0.141	-0.073	0.017	-0.089	-0.081	-0.089
-0.506	-0.87	-0.363	0.688	-0.071	-0.617	0.144	-0.073	0.014	-0.095	-0.082	-0.09
-0.52	-0.872	-0.351	0.696	-0.085	-0.611	0.145	-0.083	0.011	-0.098	-0.085	-0.093
-0.531	-0.866	-0.334	0.699	-0.099	-0.6	0.141	-0.074	0.017	-0.091	-0.08	-0.088
-0.524	-0.86	-0.337	0.692	-0.093	-0.598	0.143	-0.072	0.015	-0.093	-0.081	-0.09
-0.515	-0.864	-0.349	0.69	-0.083	-0.607	0.137	-0.082	0.008	-0.102	-0.088	-0.099
-0.515	-0.866	-0.35	0.691	-0.083	-0.608	0.133	-0.082	0.007	-0.104	-0.091	-0.101
-0.513	-0.865	-0.351	0.689	-0.082	-0.608	0.137	-0.083	0.009	-0.102	-0.088	-0.101
-0.516	-0.861	-0.344	0.688	-0.086	-0.603	0.144	-0.076	0.015	-0.1	-0.086	-0.098
-0.511	-0.859	-0.347	0.684	-0.083	-0.603	0.137	-0.085	0.009	-0.104	-0.09	-0.101
-0.507	-0.859	-0.352	0.682	-0.077	-0.605	0.134	-0.088	0.008	-0.102	-0.09	-0.101
-0.504	-0.851	-0.346	0.677	-0.079	-0.598	0.141	-0.072	0.016	-0.097	-0.087	-0.098
-0.497	-0.854	-0.356	0.675	-0.07	-0.605	0.132	-0.076	0.012	-0.1	-0.09	-0.102
-0.504	-0.861	-0.357	0.682	-0.073	-0.609	0.142	-0.076	0.014	-0.098	-0.088	-0.099
-0.513	-0.861	-0.348	0.686	-0.083	-0.604	0.157	-0.072	0.018	-0.095	-0.087	-0.097
-0.517	-0.871	-0.353	0.694	-0.082	-0.612	0.15	-0.074	0.017	-0.095	-0.086	-0.099
-0.513	-0.875	-0.362	0.694	-0.075	-0.619	0.153	-0.072	0.015	-0.098	-0.089	-0.102
-0.511	-0.874	-0.363	0.692	-0.074	-0.619	0.15	-0.073	0.014	-0.103	-0.095	-0.105
-0.517	-0.878	-0.361	0.698	-0.078	-0.62	0.143	-0.075	0.012	-0.104	-0.096	-0.106
-0.51	-0.876	-0.365	0.693	-0.072	-0.621	0.149	-0.073	0.015	-0.102	-0.092	-0.106
-0.504	-0.875	-0.37	0.69	-0.068	-0.622	0.15	-0.077	0.011	-0.104	-0.094	-0.106
-0.507	-0.876	-0.368	0.691	-0.07	-0.622	0.147	-0.08	0.007	-0.111	-0.1	-0.108
-0.512	-0.875	-0.362	0.693	-0.075	-0.619	0.152	-0.079	0.006	-0.113	-0.1	-0.108
-0.509	-0.878	-0.369	0.694	-0.07	-0.624	0.143	-0.089	0.001	-0.118	-0.104	-0.115
-0.503	-0.876	-0.373	0.69	-0.065	-0.624	0.139	-0.092	-0.001	-0.121	-0.106	-0.117
-0.509	-0.876	-0.367	0.693	-0.071	-0.622	0.138	-0.098	-0.005	-0.126	-0.111	-0.119
-0.509	-0.876	-0.367	0.693	-0.071	-0.622	0.141	-0.098	-0.006	-0.128	-0.114	-0.122
-0.512	-0.875	-0.362	0.693	-0.074	-0.619	0.145	-0.092	-0.001	-0.122	-0.111	-0.118
-0.508	-0.872	-0.363	0.69	-0.072	-0.618	0.139	-0.096	-0.003	-0.127	-0.114	-0.12
-0.501	-0.868	-0.366	0.684	-0.068	-0.617	0.137	-0.099	-0.006	-0.131	-0.116	-0.122
-0.502	-0.868	-0.366	0.685	-0.068	-0.617	0.138	-0.099	-0.007	-0.13	-0.115	-0.123
-0.501	-0.863	-0.361	0.682	-0.07	-0.612	0.147	-0.095	-0.004	-0.128	-0.114	-0.124
-0.503	-0.863	-0.359	0.682	-0.071	-0.611	0.142	-0.101	-0.007	-0.131	-0.119	-0.13
-0.501	-0.864	-0.363	0.683	-0.07	-0.614	0.141	-0.104	-0.009	-0.134	-0.122	-0.132
-0.511	-0.874	-0.362	0.692	-0.074	-0.618	0.142	-0.105	-0.011	-0.135	-0.127	-0.138
-0.52	-0.875	-0.355	0.698	-0.082	-0.616	0.138	-0.109	-0.015	-0.14	-0.134	-0.143
-0.517	-0.864	-0.347	0.69	-0.085	-0.605	0.151	-0.101	-0.007	-0.135	-0.131	-0.142
-0.518	-0.863	-0.345	0.691	-0.086	-0.604	0.154	-0.101	-0.007	-0.137	-0.132	-0.146
-0.521	-0.866	-0.345	0.694	-0.088	-0.606	0.157	-0.107	-0.011	-0.141	-0.136	-0.15
-0.515	-0.863	-0.347	0.689	-0.084	-0.605	0.151	-0.108	-0.009	-0.14	-0.139	-0.152
-0.517	-0.863	-0.344	0.69	-0.086	-0.604	0.149	-0.113	-0.016	-0.146	-0.143	-0.158
-0.524	-0.86	-0.336	0.692	-0.094	-0.598	0.15	-0.117	-0.02	-0.15	-0.146	-0.161
-0.524	-0.858	-0.334	0.691	-0.096	-0.596	0.146	-0.118	-0.018	-0.15	-0.145	-0.161
-0.523	-0.86	-0.337	0.692	-0.093	-0.598	0.153	-0.119	-0.021	-0.155	-0.149	-0.164
-0.52	-0.857	-0.336	0.689	-0.092	-0.596	0.141	-0.128	-0.025	-0.16	-0.153	-0.165
-0.521	-0.854	-0.332	0.688	-0.095	-0.593	0.139	-0.128	-0.024	-0.158	-0.15	-0.163
-0.523	-0.851	-0.327	0.686	-0.098	-0.588	0.151	-0.12	-0.02	-0.154	-0.147	-0.162
-0.529	-0.855	-0.326	0.692	-0.102	-0.59	0.147	-0.124	-0.023	-0.158	-0.151	-0.165
-0.527	-0.857	-0.33	0.692	-0.099	-0.593	0.146	-0.124	-0.024	-0.161	-0.153	-0.167
-0.52	-0.853	-0.332	0.686	-0.095	-0.592	0.149	-0.121	-0.018	-0.156	-0.149	-0.164
-0.525	-0.855	-0.33	0.69	-0.098	-0.592	0.152	-0.124	-0.021	-0.158	-0.152	-0.168
-0.527	-0.859	-0.331	0.693	-0.098	-0.595	0.147	-0.138	-0.03	-0.165	-0.16	-0.172
-0.526	-0.859	-0.333	0.692	-0.097	-0.596	0.146	-0.139	-0.029	-0.165	-0.162	-0.173
-0.524	-0.857	-0.332	0.69	-0.096	-0.594	0.156	-0.125	-0.022	-0.158	-0.157	-0.17
-0.53	-0.866	-0.336	0.698	-0.097	-0.601	0.153	-0.125	-0.019	-0.157	-0.156	-0.169
-0.532	-0.868	-0.336	0.7	-0.098	-0.602	0.155	-0.123	-0.019	-0.157	-0.157	-0.168
-0.52	-0.86	-0.34	0.69	-0.09	-0.6	0.154	-0.127	-0.019	-0.155	-0.156	-0.168
-0.52	-0.86	-0.34	0.69	-0.09	-0.6	0.153	-0.134	-0.025	-0.162	-0.163	-0.176
-0.531	-0.863	-0.332	0.697	-0.1	-0.597	0.159	-0.126	-0.025	-0.162	-0.163	-0.176
-0.53	-0.86	-0.331	0.695	-0.1	-0.595	0.158	-0.123	-0.022	-0.161	-0.162	-0.175
-0.521	-0.854	-0.332	0.687	-0.095	-0.593	0.153	-0.129	-0.021	-0.163	-0.164	-0.177
-0.524	-0.856	-0.332	0.69	-0.097	-0.594	0.159	-0.134	-0.024	-0.164	-0.166	-0.176
-0.526	-0.854	-0.328	0.69	-0.1	-0.591	0.157	-0.136	-0.029	-0.169	-0.171	-0.179
-0.523	-0.854	-0.33	0.688	-0.097	-0.592	0.137	-0.141	-0.034	-0.176	-0.176	-0.184
-0.524	-0.852	-0.328	0.688	-0.098	-0.59	0.149	-0.142	-0.034	-0.176	-0.176	-0.187
-0.522	-0.846	-0.324	0.684	-0.1	-0.585	0.146	-0.142	-0.032	-0.177	-0.177	-0.189
-0.515	-0.842	-0.327	0.678	-0.095	-0.584	0.138	-0.152	-0.034	-0.178	-0.18	-0.191
-0.518	-0.844	-0.326	0.68	-0.096	-0.585	0.151	-0.152	-0.037	-0.182	-0.184	-0.195
-0.519	-0.841	-0.321	0.679	-0.099	-0.581	0.151	-0.151	-0.041	-0.186	-0.188	-0.197
-0.518	-0.839	-0.32	0.678	-0.1	-0.579	0.153	-0.155	-0.042	-0.188	-0.189	-0.197
-0.523	-0.849	-0.326	0.686	-0.099	-0.587	0.149	-0.147	-0.037	-0.184	-0.184	-0.196
-0.518	-0.848	-0.33	0.682	-0.095	-0.589	0.153	-0.141	-0.031	-0.177	-0.18	-0.191
-0.521	-0.861	-0.34	0.691	-0.09	-0.6	0.15	-0.152	-0.036	-0.182	-0.185	-0.194
-0.521	-0.85	-0.329	0.685	-0.097	-0.589	0.137	-0.168	-0.043	-0.186	-0.19	-0.198
-0.524	-0.82	-0.295	0.671	-0.115	-0.557	0.148	-0.166	-0.045	-0.19	-0.195	-0.203
-0.53	-0.825	-0.294	0.677	-0.118	-0.559	0.148	-0.16	-0.046	-0.19	-0.195	-0.203
-0.521	-0.832	-0.31	0.676	-0.106	-0.571	0.14	-0.165	-0.044	-0.188	-0.192	-0.202
-0.522	-0.833	-0.311	0.677	-0.106	-0.572	0.147	-0.167	-0.047	-0.189	-0.196	-0.204
-0.522	-0.826	-0.304	0.674	-0.109	-0.565	0.153	-0.155	-0.038	-0.181	-0.191	-0.199
-0.526	-0.826	-0.299	0.675	-0.114	-0.562	0.154	-0.16	-0.038	-0.183	-0.191	-0.199
-0.524	-0.824	-0.299	0.674	-0.113	-0.561	0.153	-0.166	-0.044	-0.185	-0.193	-0.2
-0.526	-0.824	-0.297	0.674	-0.115	-0.56	0.147	-0.171	-0.046	-0.19	-0.194	-0.199
-0.53	-0.822	-0.292	0.675	-0.119	-0.556	0.145	-0.181	-0.054	-0.197	-0.199	-0.203
-0.521	-0.814	-0.292	0.667	-0.115	-0.552	0.146	-0.175	-0.051	-0.196	-0.2	-0.203
-0.527	-0.822	-0.294	0.674	-0.117	-0.558	0.138	-0.184	-0.06	-0.205	-0.207	-0.209
-0.52	-0.815	-0.294	0.667	-0.113	-0.554	0.13	-0.192	-0.066	-0.21	-0.212	-0.213
-0.51	-0.799	-0.289	0.654	-0.111	-0.544	0.133	-0.191	-0.061	-0.206	-0.207	-0.208
-0.519	-0.808	-0.289	0.663	-0.115	-0.548	0.13	-0.198	-0.065	-0.211	-0.21	-0.211
-0.527	-0.817	-0.289	0.671	-0.119	-0.552	0.133	-0.195	-0.066	-0.212	-0.212	-0.214
-0.53	-0.813	-0.283	0.671	-0.123	-0.548	0.132	-0.197	-0.069	-0.214	-0.213	-0.212
-0.527	-0.807	-0.28	0.667	-0.123	-0.543	0.129	-0.194	-0.065	-0.21	-0.21	-0.211
-0.52	-0.801	-0.281	0.66	-0.12	-0.54	0.138	-0.191	-0.061	-0.207	-0.208	-0.211
-0.51	-0.796	-0.286	0.653	-0.112	-0.541	0.126	-0.193	-0.069	-0.212	-0.212	-0.214
-0.518	-0.793	-0.275	0.655	-0.122	-0.533	0.13	-0.194	-0.064	-0.207	-0.208	-0.212
-0.527	-0.788	-0.261	0.657	-0.134	-0.524	0.141	-0.194	-0.058	-0.202	-0.204	-0.21
-0.518	-0.782	-0.264	0.65	-0.128	-0.522	0.135	-0.186	-0.052	-0.198	-0.203	-0.208
-0.52	-0.791	-0.272	0.655	-0.124	-0.531	0.133	-0.197	-0.062	-0.204	-0.209	-0.212
-0.524	-0.794	-0.27	0.659	-0.127	-0.532	0.137	-0.197	-0.073	-0.212	-0.213	-0.218
-0.523	-0.79	-0.267	0.656	-0.128	-0.528	0.136	-0.202	-0.068	-0.209	-0.211	-0.214
-0.519	-0.791	-0.272	0.654	-0.123	-0.531	0.128	-0.209	-0.069	-0.21	-0.211	-0.214
-0.516	-0.783	-0.267	0.649	-0.124	-0.524	0.133	-0.199	-0.067	-0.209	-0.211	-0.214
-0.514	-0.783	-0.269	0.648	-0.123	-0.525	0.131	-0.203	-0.068	-0.212	-0.213	-0.215
-0.509	-0.784	-0.275	0.646	-0.117	-0.529	0.123	-0.204	-0.073	-0.218	-0.216	-0.217
-0.511	-0.781	-0.27	0.646	-0.12	-0.525	0.127	-0.204	-0.072	-0.22	-0.217	-0.217
-0.512	-0.78	-0.269	0.646	-0.121	-0.524	0.127	-0.206	-0.073	-0.222	-0.217	-0.217
-0.508	-0.774	-0.266	0.641	-0.121	-0.52	0.128	-0.206	-0.071	-0.221	-0.216	-0.214
-0.502	-0.775	-0.274	0.638	-0.115	-0.524	0.122	-0.207	-0.07	-0.222	-0.217	-0.215
-0.498	-0.779	-0.281	0.638	-0.108	-0.529	0.127	-0.202	-0.069	-0.22	-0.216	-0.214
-0.502	-0.772	-0.271	0.637	-0.116	-0.521	0.132	-0.196	-0.064	-0.213	-0.211	-0.21
-0.507	-0.779	-0.272	0.643	-0.117	-0.525	0.123	-0.195	-0.058	-0.212	-0.209	-0.208
-0.507	-0.782	-0.275	0.644	-0.116	-0.528	0.129	-0.199	-0.058	-0.208	-0.203	-0.201
-0.512	-0.778	-0.265	0.645	-0.123	-0.521	0.14	-0.187	-0.054	-0.201	-0.199	-0.196
-0.521	-0.784	-0.263	0.652	-0.13	-0.523	0.144	-0.172	-0.043	-0.194	-0.196	-0.193
-0.507	-0.779	-0.272	0.642	-0.117	-0.525	0.146	-0.173	-0.043	-0.193	-0.195	-0.191
-0.497	-0.779	-0.282	0.637	-0.107	-0.53	0.149	-0.171	-0.042	-0.189	-0.193	-0.189
-0.49	-0.773	-0.282	0.631	-0.103	-0.527	0.144	-0.167	-0.037	-0.183	-0.188	-0.183
-0.494	-0.767	-0.274	0.631	-0.111	-0.52	0.148	-0.173	-0.037	-0.184	-0.186	-0.182
-0.505	-0.776	-0.271	0.64	-0.117	-0.523	0.155	-0.168	-0.032	-0.181	-0.184	-0.181
-0.497	-0.776	-0.279	0.636	-0.109	-0.527	0.157	-0.16	-0.029	-0.177	-0.182	-0.179
-0.488	-0.77	-0.282	0.628	-0.103	-0.525	0.151	-0.163	-0.03	-0.179	-0.18	-0.179
-0.478	-0.763	-0.284	0.621	-0.097	-0.523	0.159	-0.154	-0.027	-0.176	-0.179	-0.178
-0.481	-0.759	-0.278	0.62	-0.102	-0.518	0.162	-0.159	-0.025	-0.174	-0.176	-0.174
-0.483	-0.751	-0.268	0.617	-0.107	-0.509	0.146	-0.155	-0.019	-0.173	-0.173	-0.171
-0.486	-0.752	-0.266	0.62	-0.11	-0.509	0.159	-0.148	-0.016	-0.172	-0.172	-0.171
-0.493	-0.755	-0.263	0.624	-0.116	-0.508	0.169	-0.151	-0.011	-0.17	-0.17	-0.172
-0.487	-0.752	-0.265	0.62	-0.112	-0.508	0.157	-0.15	-0.012	-0.171	-0.172	-0.174
-0.482	-0.748	-0.266	0.615	-0.108	-0.506	0.158	-0.147	-0.011	-0.171	-0.171	-0.174
-0.485	-0.75	-0.265	0.618	-0.111	-0.507	0.165	-0.14	-0.005	-0.168	-0.168	-0.173
-0.485	-0.752	-0.267	0.619	-0.11	-0.509	0.174	-0.136	-0.001	-0.164	-0.165	-0.17
-0.473	-0.735	-0.261	0.604	-0.106	-0.497	0.175	-0.126	0.013	-0.15	-0.154	-0.159
-0.47	-0.735	-0.265	0.603	-0.103	-0.499	0.171	-0.12	0.018	-0.146	-0.149	-0.154
-0.469	-0.735	-0.266	0.602	-0.102	-0.5	0.177	-0.12	0.018	-0.145	-0.147	-0.153
-0.47	-0.736	-0.267	0.603	-0.102	-0.501	0.178	-0.117	0.022	-0.14	-0.144	-0.15
-0.466	-0.735	-0.269	0.6	-0.099	-0.501	0.178	-0.109	0.03	-0.132	-0.137	-0.142
-0.456	-0.724	-0.269	0.59	-0.093	-0.496	0.192	-0.097	0.042	-0.121	-0.128	-0.135
-0.464	-0.735	-0.271	0.599	-0.096	-0.502	0.198	-0.09	0.046	-0.117	-0.122	-0.13
-0.462	-0.731	-0.27	0.597	-0.096	-0.5	0.196	-0.092	0.047	-0.113	-0.117	-0.124
-0.46	-0.726	-0.267	0.593	-0.097	-0.496	0.203	-0.09	0.051	-0.111	-0.116	-0.121
-0.468	-0.728	-0.261	0.598	-0.103	-0.494	0.208	-0.084	0.059	-0.105	-0.112	-0.118
-0.47	-0.726	-0.257	0.598	-0.107	-0.49	0.205	-0.081	0.066	-0.101	-0.107	-0.117
-0.462	-0.724	-0.262	0.593	-0.101	-0.492	0.211	-0.084	0.061	-0.105	-0.111	-0.117
-0.462	-0.724	-0.262	0.592	-0.1	-0.492	0.217	-0.082	0.062	-0.103	-0.108	-0.114
-0.478	-0.725	-0.247	0.601	-0.116	-0.486	0.222	-0.082	0.069	-0.1	-0.105	-0.111
-0.477	-0.723	-0.246	0.6	-0.116	-0.484	0.223	-0.085	0.068	-0.101	-0.106	-0.112
-0.475	-0.725	-0.249	0.6	-0.113	-0.487	0.22	-0.085	0.066	-0.104	-0.105	-0.113
-0.482	-0.725	-0.242	0.604	-0.12	-0.483	0.222	-0.086	0.069	-0.103	-0.105	-0.112
-0.482	-0.723	-0.24	0.602	-0.121	-0.481	0.225	-0.088	0.072	-0.1	-0.103	-0.109
-0.478	-0.722	-0.243	0.6	-0.117	-0.482	0.228	-0.091	0.074	-0.099	-0.101	-0.106
-0.474	-0.717	-0.242	0.596	-0.117	-0.479	0.231	-0.085	0.079	-0.093	-0.096	-0.103
-0.481	-0.716	-0.234	0.599	-0.123	-0.475	0.232	-0.085	0.081	-0.092	-0.096	-0.102
-0.484	-0.716	-0.231	0.6	-0.127	-0.473	0.234	-0.09	0.088	-0.086	-0.091	-0.099
-0.491	-0.72	-0.23	0.606	-0.131	-0.474	0.239	-0.092	0.085	-0.086	-0.089	-0.096
-0.498	-0.73	-0.231	0.614	-0.134	-0.48	0.241	-0.097	0.077	-0.089	-0.093	-0.098
-0.499	-0.727	-0.228	0.613	-0.136	-0.477	0.239	-0.101	0.083	-0.082	-0.087	-0.095
-0.506	-0.728	-0.221	0.617	-0.143	-0.474	0.248	-0.099	0.086	-0.079	-0.084	-0.091
-0.501	-0.716	-0.215	0.608	-0.143	-0.465	0.256	-0.1	0.089	-0.074	-0.079	-0.086
-0.499	-0.715	-0.215	0.607	-0.142	-0.465	0.247	-0.114	0.086	-0.075	-0.078	-0.085
-0.509	-0.726	-0.217	0.618	-0.146	-0.471	0.241	-0.124	0.08	-0.079	-0.08	-0.086
-0.494	-0.713	-0.218	0.603	-0.138	-0.465	0.24	-0.121	0.086	-0.07	-0.072	-0.081
-0.491	-0.709	-0.218	0.6	-0.137	-0.464	0.245	-0.118	0.091	-0.067	-0.069	-0.077
-0.502	-0.703	-0.201	0.603	-0.15	-0.452	0.242	-0.129	0.088	-0.068	-0.067	-0.074
-0.493	-0.698	-0.205	0.595	-0.143	-0.452	0.224	-0.141	0.084	-0.07	-0.066	-0.074
-0.502	-0.706	-0.203	0.604	-0.149	-0.454	0.223	-0.149	0.082	-0.069	-0.065	-0.07
-0.505	-0.699	-0.193	0.602	-0.156	-0.446	0.221	-0.15	0.083	-0.065	-0.059	-0.066
-0.495	-0.685	-0.191	0.59	-0.152	-0.438	0.216	-0.144	0.089	-0.058	-0.051	-0.058
-0.496	-0.681	-0.185	0.589	-0.155	-0.433	0.222	-0.141	0.093	-0.053	-0.045	-0.053
-0.486	-0.675	-0.19	0.581	-0.148	-0.432	0.212	-0.146	0.094	-0.051	-0.041	-0.052
-0.481	-0.672	-0.191	0.577	-0.145	-0.431	0.204	-0.144	0.099	-0.044	-0.035	-0.044
-0.476	-0.669	-0.194	0.573	-0.141	-0.431	0.198	-0.139	0.1	-0.042	-0.029	-0.038
-0.465	-0.658	-0.194	0.561	-0.135	-0.425	0.174	-0.148	0.102	-0.034	-0.019	-0.03
-0.45	-0.647	-0.198	0.548	-0.126	-0.422	0.163	-0.14	0.113	-0.019	-0.006	-0.017
-0.447	-0.641	-0.195	0.543	-0.126	-0.418	0.164	-0.13	0.12	-0.011	0.005	-0.007
-0.446	-0.643	-0.197	0.544	-0.124	-0.419	0.157	-0.132	0.123	-0.005	0.009	-0.004
-0.435	-0.639	-0.203	0.537	-0.116	-0.421	0.145	-0.134	0.127	0.003	0.018	0.005
-0.438	-0.642	-0.204	0.54	-0.117	-0.423	0.13	-0.127	0.132	0.011	0.025	0.014
-0.436	-0.647	-0.211	0.542	-0.113	-0.429	0.116	-0.12	0.137	0.018	0.033	0.022
-0.428	-0.639	-0.211	0.533	-0.108	-0.425	0.111	-0.114	0.146	0.03	0.043	0.033
-0.423	-0.638	-0.215	0.53	-0.104	-0.426	0.1	-0.112	0.147	0.033	0.048	0.037
-0.417	-0.645	-0.228	0.531	-0.095	-0.436	0.089	-0.116	0.143	0.033	0.051	0.041
-0.417	-0.656	-0.239	0.536	-0.089	-0.448	0.067	-0.116	0.142	0.036	0.053	0.044
-0.411	-0.656	-0.245	0.533	-0.083	-0.45	0.048	-0.108	0.145	0.043	0.06	0.052
-0.405	-0.654	-0.249	0.529	-0.078	-0.452	0.044	-0.097	0.152	0.05	0.067	0.059
-0.406	-0.657	-0.252	0.531	-0.077	-0.455	0.037	-0.093	0.149	0.048	0.068	0.058
-0.401	-0.658	-0.257	0.529	-0.072	-0.458	0.032	-0.091	0.151	0.052	0.07	0.06
-0.394	-0.665	-0.272	0.529	-0.06	-0.469	0.029	-0.088	0.154	0.051	0.07	0.059
-0.395	-0.667	-0.273	0.531	-0.061	-0.469	0.031	-0.073	0.161	0.057	0.076	0.065
-0.399	-0.675	-0.277	0.537	-0.061	-0.476	0.026	-0.064	0.163	0.06	0.078	0.067
-0.399	-0.681	-0.282	0.54	-0.059	-0.481	0.029	-0.067	0.161	0.056	0.076	0.065
-0.394	-0.674	-0.28	0.533	-0.057	-0.477	0.035	-0.063	0.17	0.066	0.085	0.073
-0.387	-0.671	-0.284	0.528	-0.051	-0.477	0.037	-0.046	0.18	0.076	0.099	0.084
-0.397	-0.674	-0.278	0.535	-0.059	-0.475	0.048	-0.026	0.192	0.088	0.11	0.093
-0.39	-0.681	-0.291	0.535	-0.049	-0.486	0.044	-0.024	0.195	0.093	0.113	0.097
-0.38	-0.684	-0.304	0.532	-0.038	-0.494	0.043	-0.025	0.195	0.093	0.116	0.099
-0.377	-0.682	-0.305	0.529	-0.036	-0.493	0.052	-0.013	0.203	0.104	0.126	0.111
-0.381	-0.679	-0.298	0.529	-0.042	-0.488	0.059	-0.004	0.21	0.113	0.135	0.119
-0.394	-0.682	-0.288	0.537	-0.052	-0.485	0.064	-0.003	0.212	0.116	0.137	0.12
-0.381	-0.674	-0.293	0.527	-0.044	-0.483	0.059	0.003	0.213	0.118	0.14	0.124
-0.378	-0.673	-0.295	0.525	-0.041	-0.484	0.069	0.005	0.215	0.122	0.144	0.129
-0.381	-0.678	-0.298	0.529	-0.042	-0.488	0.065	0.009	0.217	0.126	0.147	0.133
-0.372	-0.677	-0.305	0.524	-0.034	-0.491	0.058	0.024	0.229	0.136	0.158	0.142
-0.374	-0.696	-0.321	0.534	-0.026	-0.508	0.062	0.027	0.232	0.141	0.163	0.148
-0.379	-0.696	-0.317	0.537	-0.031	-0.506	0.06	0.024	0.229	0.139	0.162	0.147
-0.374	-0.688	-0.314	0.53	-0.03	-0.5	0.068	0.029	0.233	0.141	0.165	0.15
-0.371	-0.688	-0.317	0.529	-0.027	-0.502	0.066	0.029	0.229	0.14	0.164	0.15
-0.371	-0.688	-0.317	0.53	-0.028	-0.502	0.06	0.026	0.226	0.136	0.163	0.149
-0.371	-0.692	-0.321	0.531	-0.025	-0.506	0.058	0.024	0.224	0.133	0.163	0.148
-0.367	-0.689	-0.322	0.527	-0.022	-0.505	0.066	0.03	0.226	0.134	0.164	0.149
-0.363	-0.689	-0.325	0.525	-0.019	-0.506	0.064	0.033	0.224	0.132	0.162	0.148
-0.366	-0.693	-0.327	0.529	-0.02	-0.509	0.063	0.023	0.22	0.13	0.161	0.148
-0.373	-0.699	-0.326	0.536	-0.024	-0.512	0.066	0.028	0.222	0.132	0.162	0.149
-0.38	-0.706	-0.327	0.542	-0.026	-0.515	0.064	0.029	0.221	0.133	0.161	0.148
-0.373	-0.711	-0.338	0.541	-0.018	-0.524	0.068	0.03	0.219	0.134	0.162	0.15
-0.368	-0.709	-0.34	0.538	-0.014	-0.524	0.07	0.031	0.218	0.133	0.162	0.151
-0.366	-0.704	-0.338	0.534	-0.015	-0.52	0.073	0.035	0.223	0.137	0.164	0.152
-0.368	-0.709	-0.341	0.538	-0.014	-0.524	0.072	0.036	0.221	0.138	0.164	0.153
-0.373	-0.712	-0.338	0.542	-0.018	-0.524	0.074	0.035	0.22	0.138	0.165	0.153
-0.371	-0.713	-0.342	0.542	-0.015	-0.527	0.076	0.038	0.22	0.139	0.165	0.153
-0.37	-0.712	-0.342	0.54	-0.014	-0.526	0.075	0.035	0.218	0.137	0.164	0.154
-0.373	-0.714	-0.341	0.543	-0.017	-0.527	0.078	0.034	0.22	0.138	0.163	0.153
-0.381	-0.724	-0.343	0.552	-0.019	-0.533	0.081	0.035	0.216	0.134	0.159	0.151
-0.38	-0.724	-0.344	0.551	-0.018	-0.534	0.082	0.037	0.217	0.131	0.155	0.15
-0.383	-0.725	-0.342	0.553	-0.02	-0.533	0.081	0.034	0.214	0.13	0.154	0.148
-0.386	-0.724	-0.338	0.554	-0.024	-0.53	0.076	0.031	0.211	0.125	0.151	0.146
-0.387	-0.726	-0.339	0.556	-0.024	-0.532	0.069	0.025	0.207	0.117	0.147	0.144
-0.391	-0.726	-0.336	0.558	-0.028	-0.53	0.071	0.024	0.204	0.115	0.145	0.142
-0.388	-0.723	-0.334	0.555	-0.027	-0.528	0.073	0.026	0.205	0.114	0.144	0.141
-0.383	-0.725	-0.341	0.553	-0.021	-0.532	0.075	0.024	0.203	0.111	0.143	0.14
-0.385	-0.726	-0.341	0.555	-0.022	-0.533	0.079	0.025	0.201	0.108	0.141	0.137
-0.393	-0.723	-0.33	0.558	-0.032	-0.526	0.078	0.026	0.203	0.11	0.141	0.138
-0.396	-0.72	-0.324	0.557	-0.036	-0.521	0.084	0.029	0.202	0.111	0.142	0.138
-0.391	-0.725	-0.334	0.557	-0.029	-0.529	0.086	0.03	0.2	0.108	0.139	0.135
-0.39	-0.727	-0.338	0.558	-0.026	-0.532	0.088	0.031	0.2	0.108	0.137	0.133
-0.393	-0.734	-0.342	0.562	-0.025	-0.537	0.091	0.033	0.196	0.105	0.133	0.129
-0.391	-0.735	-0.344	0.562	-0.024	-0.539	0.095	0.034	0.197	0.106	0.132	0.127
-0.393	-0.736	-0.344	0.564	-0.025	-0.539	0.097	0.035	0.198	0.105	0.132	0.126
-0.389	-0.743	-0.353	0.566	-0.018	-0.547	0.093	0.035	0.197	0.103	0.128	0.122
-0.393	-0.747	-0.353	0.57	-0.02	-0.549	0.099	0.039	0.199	0.103	0.126	0.121
-0.402	-0.754	-0.352	0.578	-0.025	-0.553	0.102	0.036	0.193	0.099	0.123	0.119
-0.397	-0.751	-0.355	0.574	-0.021	-0.553	0.101	0.033	0.189	0.097	0.121	0.117
-0.395	-0.748	-0.353	0.571	-0.021	-0.55	0.102	0.034	0.189	0.096	0.119	0.115
-0.392	-0.746	-0.354	0.568	-0.019	-0.549	0.103	0.032	0.188	0.092	0.116	0.112
-0.396	-0.749	-0.352	0.572	-0.022	-0.55	0.102	0.032	0.187	0.089	0.113	0.109
-0.405	-0.752	-0.347	0.579	-0.029	-0.549	0.107	0.032	0.187	0.087	0.111	0.107
-0.406	-0.756	-0.35	0.581	-0.028	-0.553	0.096	0.032	0.186	0.085	0.109	0.106
-0.406	-0.759	-0.353	0.582	-0.026	-0.555	0.09	0.029	0.177	0.077	0.101	0.099
-0.409	-0.757	-0.348	0.584	-0.03	-0.553	0.108	0.024	0.175	0.072	0.099	0.096
-0.406	-0.764	-0.358	0.585	-0.024	-0.561	0.104	0.025	0.18	0.075	0.101	0.099
-0.41	-0.781	-0.371	0.595	-0.019	-0.576	0.102	0.028	0.18	0.075	0.1	0.098
-0.424	-0.793	-0.368	0.608	-0.028	-0.581	0.116	0.032	0.183	0.076	0.1	0.098
-0.429	-0.777	-0.348	0.603	-0.041	-0.562	0.113	0.029	0.179	0.072	0.096	0.092
-0.432	-0.754	-0.323	0.593	-0.054	-0.538	0.103	0.014	0.166	0.059	0.082	0.077
-0.427	-0.75	-0.322	0.589	-0.052	-0.535	0.099	0.015	0.167	0.059	0.079	0.073
-0.426	-0.762	-0.336	0.594	-0.045	-0.548	0.105	0.021	0.17	0.062	0.079	0.075
-0.43	-0.765	-0.335	0.598	-0.048	-0.55	0.114	0.021	0.171	0.062	0.079	0.075
-0.433	-0.767	-0.334	0.6	-0.05	-0.55	0.111	0.025	0.173	0.065	0.081	0.076
-0.428	-0.769	-0.341	0.599	-0.044	-0.554	0.113	0.022	0.169	0.06	0.075	0.071
-0.431	-0.766	-0.336	0.599	-0.048	-0.55	0.117	0.024	0.173	0.063	0.079	0.072
-0.446	-0.772	-0.326	0.609	-0.06	-0.549	0.123	0.026	0.176	0.067	0.079	0.072
-0.438	-0.767	-0.329	0.603	-0.055	-0.547	0.128	0.037	0.18	0.068	0.08	0.074
-0.433	-0.764	-0.331	0.599	-0.051	-0.547	0.124	0.042	0.186	0.072	0.082	0.077
-0.444	-0.766	-0.323	0.605	-0.06	-0.544	0.133	0.036	0.182	0.069	0.076	0.073
-0.446	-0.771	-0.325	0.608	-0.06	-0.548	0.122	0.033	0.177	0.062	0.073	0.069
-0.437	-0.767	-0.33	0.602	-0.053	-0.548	0.121	0.029	0.175	0.059	0.07	0.067
-0.435	-0.761	-0.326	0.599	-0.054	-0.543	0.129	0.035	0.177	0.059	0.07	0.066
-0.443	-0.762	-0.319	0.602	-0.062	-0.54	0.127	0.038	0.183	0.062	0.075	0.07
-0.444	-0.756	-0.312	0.6	-0.066	-0.534	0.135	0.036	0.185	0.063	0.073	0.069
-0.45	-0.763	-0.314	0.606	-0.068	-0.538	0.13	0.035	0.182	0.059	0.07	0.066
-0.467	-0.76	-0.294	0.614	-0.086	-0.527	0.135	0.042	0.19	0.068	0.077	0.075
-0.462	-0.754	-0.292	0.608	-0.085	-0.522	0.137	0.04	0.189	0.068	0.076	0.074
-0.449	-0.756	-0.307	0.603	-0.071	-0.531	0.131	0.03	0.184	0.06	0.07	0.069
-0.448	-0.754	-0.307	0.601	-0.07	-0.53	0.134	0.04	0.193	0.069	0.075	0.072
-0.447	-0.757	-0.31	0.602	-0.069	-0.533	0.134	0.051	0.193	0.069	0.073	0.072
-0.454	-0.758	-0.304	0.606	-0.075	-0.531	0.14	0.051	0.191	0.069	0.074	0.071
-0.454	-0.758	-0.305	0.606	-0.074	-0.531	0.14	0.05	0.196	0.075	0.078	0.073
-0.459	-0.764	-0.305	0.612	-0.077	-0.534	0.141	0.05	0.199	0.076	0.077	0.072
-0.465	-0.767	-0.302	0.616	-0.081	-0.534	0.14	0.05	0.197	0.075	0.077	0.073
-0.458	-0.761	-0.304	0.61	-0.077	-0.532	0.141	0.053	0.2	0.08	0.08	0.076
-0.455	-0.758	-0.303	0.606	-0.076	-0.53	0.143	0.053	0.205	0.085	0.084	0.08
-0.449	-0.753	-0.304	0.601	-0.072	-0.528	0.15	0.059	0.208	0.087	0.087	0.08
-0.442	-0.751	-0.309	0.596	-0.067	-0.53	0.153	0.06	0.208	0.088	0.088	0.082
-0.442	-0.754	-0.313	0.598	-0.064	-0.533	0.141	0.059	0.207	0.086	0.088	0.082
-0.446	-0.75	-0.305	0.598	-0.07	-0.527	0.148	0.065	0.212	0.089	0.091	0.085
-0.447	-0.748	-0.301	0.597	-0.072	-0.524	0.147	0.056	0.208	0.086	0.09	0.085
-0.446	-0.753	-0.307	0.599	-0.07	-0.529	0.137	0.057	0.208	0.083	0.087	0.079
-0.449	-0.756	-0.307	0.603	-0.071	-0.532	0.138	0.051	0.205	0.079	0.085	0.076
-0.451	-0.757	-0.306	0.604	-0.072	-0.532	0.137	0.051	0.206	0.077	0.085	0.076
-0.449	-0.753	-0.304	0.601	-0.072	-0.529	0.13	0.052	0.21	0.082	0.085	0.077
-0.455	-0.761	-0.306	0.608	-0.074	-0.533	0.129	0.037	0.195	0.072	0.08	0.073
-0.454	-0.764	-0.311	0.609	-0.071	-0.537	0.136	0.044	0.197	0.074	0.083	0.075
-0.448	-0.752	-0.304	0.6	-0.072	-0.528	0.139	0.052	0.205	0.083	0.088	0.082
-0.454	-0.754	-0.301	0.604	-0.076	-0.527	0.135	0.049	0.207	0.083	0.091	0.082
-0.446	-0.757	-0.311	0.602	-0.068	-0.534	0.132	0.048	0.203	0.083	0.091	0.082
-0.445	-0.76	-0.316	0.603	-0.065	-0.538	0.133	0.044	0.201	0.083	0.088	0.082
-0.451	-0.765	-0.315	0.608	-0.069	-0.539	0.129	0.043	0.204	0.086	0.092	0.084
-0.457	-0.763	-0.307	0.61	-0.075	-0.535	0.133	0.053	0.209	0.092	0.098	0.088
-0.45	-0.764	-0.314	0.607	-0.068	-0.538	0.13	0.053	0.21	0.096	0.1	0.093
-0.436	-0.761	-0.325	0.599	-0.056	-0.542	0.129	0.05	0.21	0.099	0.104	0.096
-0.44	-0.756	-0.317	0.598	-0.061	-0.536	0.137	0.053	0.214	0.102	0.106	0.098
-0.436	-0.752	-0.316	0.595	-0.06	-0.534	0.134	0.051	0.211	0.099	0.105	0.098
-0.442	-0.756	-0.314	0.599	-0.064	-0.534	0.127	0.049	0.209	0.097	0.103	0.095
-0.451	-0.76	-0.309	0.605	-0.07	-0.534	0.127	0.042	0.206	0.095	0.101	0.095
-0.455	-0.758	-0.303	0.607	-0.076	-0.53	0.134	0.045	0.21	0.097	0.103	0.098
-0.455	-0.755	-0.3	0.605	-0.077	-0.527	0.131	0.042	0.207	0.093	0.103	0.098
-0.456	-0.76	-0.304	0.608	-0.075	-0.532	0.128	0.034	0.204	0.089	0.104	0.099
-0.455	-0.761	-0.306	0.608	-0.074	-0.533	0.128	0.041	0.206	0.09	0.104	0.1
-0.455	-0.758	-0.303	0.606	-0.075	-0.53	0.131	0.039	0.204	0.09	0.104	0.1
-0.468	-0.755	-0.287	0.611	-0.09	-0.521	0.132	0.042	0.21	0.096	0.111	0.105
-0.465	-0.75	-0.284	0.607	-0.09	-0.517	0.127	0.036	0.207	0.095	0.109	0.105
-0.457	-0.751	-0.294	0.604	-0.081	-0.522	0.125	0.032	0.205	0.093	0.111	0.106
-0.453	-0.746	-0.293	0.599	-0.079	-0.519	0.129	0.042	0.209	0.097	0.114	0.112
-0.453	-0.747	-0.293	0.6	-0.08	-0.52	0.129	0.037	0.209	0.099	0.115	0.114
-0.457	-0.748	-0.29	0.602	-0.083	-0.518	0.133	0.044	0.216	0.106	0.12	0.118
-0.458	-0.746	-0.288	0.602	-0.085	-0.516	0.137	0.049	0.22	0.109	0.124	0.122
-0.461	-0.753	-0.292	0.607	-0.085	-0.523	0.136	0.046	0.218	0.111	0.125	0.123
-0.458	-0.748	-0.29	0.603	-0.084	-0.518	0.142	0.052	0.222	0.117	0.131	0.125
-0.457	-0.745	-0.288	0.601	-0.085	-0.516	0.142	0.046	0.22	0.116	0.132	0.128
-0.454	-0.745	-0.29	0.599	-0.082	-0.517	0.139	0.052	0.223	0.12	0.136	0.132
-0.447	-0.739	-0.291	0.593	-0.077	-0.515	0.139	0.058	0.227	0.125	0.139	0.135
-0.452	-0.741	-0.289	0.596	-0.081	-0.515	0.14	0.056	0.227	0.125	0.14	0.136
-0.447	-0.738	-0.291	0.592	-0.078	-0.514	0.139	0.055	0.229	0.128	0.142	0.14
-0.451	-0.739	-0.289	0.595	-0.081	-0.514	0.139	0.053	0.226	0.125	0.141	0.139
-0.457	-0.741	-0.284	0.599	-0.086	-0.512	0.139	0.05	0.224	0.123	0.142	0.138
-0.451	-0.734	-0.283	0.592	-0.084	-0.508	0.135	0.05	0.226	0.126	0.143	0.141
-0.448	-0.73	-0.282	0.589	-0.084	-0.505	0.134	0.053	0.225	0.124	0.144	0.142
-0.442	-0.724	-0.282	0.583	-0.08	-0.503	0.128	0.048	0.224	0.124	0.145	0.141
-0.438	-0.722	-0.284	0.58	-0.077	-0.502	0.122	0.045	0.222	0.124	0.144	0.142
-0.436	-0.722	-0.285	0.579	-0.076	-0.503	0.125	0.045	0.22	0.123	0.144	0.142
-0.435	-0.719	-0.283	0.577	-0.076	-0.501	0.132	0.048	0.222	0.122	0.147	0.145
-0.439	-0.72	-0.281	0.579	-0.08	-0.499	0.129	0.043	0.221	0.122	0.147	0.147
-0.44	-0.716	-0.276	0.578	-0.082	-0.495	0.129	0.045	0.223	0.126	0.15	0.15
-0.435	-0.717	-0.281	0.576	-0.077	-0.499	0.133	0.05	0.226	0.129	0.152	0.152
-0.429	-0.713	-0.283	0.571	-0.073	-0.498	0.129	0.048	0.224	0.131	0.153	0.154
-0.427	-0.709	-0.282	0.568	-0.072	-0.495	0.131	0.051	0.226	0.133	0.154	0.156
-0.428	-0.71	-0.282	0.569	-0.073	-0.496	0.14	0.052	0.229	0.135	0.157	0.158
-0.429	-0.709	-0.279	0.569	-0.075	-0.493	0.141	0.055	0.228	0.139	0.161	0.16
-0.427	-0.707	-0.279	0.567	-0.074	-0.492	0.137	0.056	0.229	0.14	0.161	0.161
-0.428	-0.707	-0.279	0.567	-0.075	-0.492	0.141	0.055	0.231	0.141	0.162	0.163
-0.425	-0.707	-0.282	0.566	-0.071	-0.494	0.144	0.055	0.23	0.141	0.161	0.162
-0.415	-0.704	-0.288	0.559	-0.064	-0.496	0.136	0.046	0.224	0.136	0.158	0.161
-0.42	-0.701	-0.281	0.561	-0.07	-0.49	0.131	0.045	0.224	0.137	0.159	0.163
-0.422	-0.701	-0.279	0.561	-0.071	-0.49	0.137	0.05	0.228	0.14	0.161	0.166
-0.414	-0.701	-0.286	0.557	-0.065	-0.493	0.138	0.05	0.226	0.137	0.16	0.163
-0.417	-0.697	-0.28	0.557	-0.069	-0.488	0.137	0.048	0.222	0.135	0.158	0.163
-0.416	-0.696	-0.28	0.555	-0.068	-0.488	0.137	0.036	0.216	0.13	0.156	0.161
-0.419	-0.697	-0.278	0.557	-0.07	-0.487	0.131	0.038	0.215	0.128	0.157	0.161
-0.423	-0.697	-0.274	0.56	-0.075	-0.485	0.128	0.035	0.212	0.123	0.154	0.159
-0.42	-0.69	-0.27	0.555	-0.075	-0.479	0.131	0.032	0.211	0.121	0.154	0.159
-0.426	-0.695	-0.269	0.56	-0.079	-0.482	0.122	0.032	0.208	0.119	0.153	0.159
-0.428	-0.704	-0.276	0.566	-0.076	-0.489	0.112	0.024	0.202	0.117	0.15	0.155
-0.426	-0.696	-0.27	0.56	-0.078	-0.482	0.121	0.022	0.202	0.115	0.149	0.155
-0.432	-0.696	-0.264	0.564	-0.084	-0.48	0.124	0.022	0.2	0.115	0.148	0.157
-0.423	-0.691	-0.269	0.557	-0.077	-0.479	0.123	0.024	0.2	0.116	0.15	0.158
-0.42	-0.69	-0.271	0.555	-0.075	-0.48	0.126	0.022	0.2	0.117	0.152	0.159
-0.425	-0.7	-0.275	0.562	-0.075	-0.487	0.121	0.021	0.2	0.12	0.154	0.162
-0.419	-0.701	-0.282	0.559	-0.069	-0.491	0.124	0.022	0.197	0.119	0.154	0.164
-0.419	-0.696	-0.278	0.557	-0.071	-0.486	0.122	0.017	0.194	0.117	0.152	0.162
-0.42	-0.694	-0.274	0.556	-0.073	-0.483	0.122	0.017	0.192	0.115	0.15	0.163
-0.418	-0.694	-0.276	0.556	-0.071	-0.484	0.124	0.02	0.192	0.118	0.152	0.162
-0.413	-0.69	-0.277	0.551	-0.068	-0.483	0.115	0.012	0.192	0.118	0.153	0.161
-0.415	-0.692	-0.277	0.553	-0.069	-0.484	0.122	0.018	0.191	0.117	0.151	0.161
-0.426	-0.695	-0.269	0.56	-0.079	-0.481	0.13	0.022	0.191	0.117	0.15	0.161
-0.431	-0.696	-0.265	0.564	-0.083	-0.48	0.123	0.009	0.184	0.112	0.147	0.159
-0.434	-0.699	-0.264	0.566	-0.085	-0.481	0.121	0.013	0.185	0.111	0.146	0.158
-0.429	-0.698	-0.269	0.564	-0.081	-0.483	0.119	0.009	0.183	0.108	0.143	0.155
-0.423	-0.699	-0.276	0.56	-0.074	-0.487	0.115	-0.001	0.173	0.101	0.137	0.149
-0.422	-0.697	-0.275	0.559	-0.074	-0.485	0.113	-0.007	0.169	0.094	0.132	0.144
-0.416	-0.694	-0.278	0.554	-0.07	-0.485	0.114	-0.009	0.164	0.088	0.127	0.142
-0.418	-0.692	-0.274	0.555	-0.072	-0.482	0.108	-0.006	0.165	0.089	0.128	0.141
-0.438	-0.699	-0.262	0.568	-0.088	-0.479	0.111	-0.006	0.166	0.089	0.127	0.141
-0.442	-0.702	-0.26	0.572	-0.091	-0.48	0.117	-0.009	0.161	0.086	0.125	0.14
-0.441	-0.704	-0.263	0.572	-0.088	-0.483	0.111	-0.013	0.159	0.085	0.122	0.138
-0.44	-0.706	-0.266	0.573	-0.087	-0.485	0.113	-0.011	0.156	0.083	0.119	0.135
-0.438	-0.712	-0.274	0.575	-0.082	-0.492	0.12	-0.009	0.158	0.085	0.119	0.136
-0.438	-0.717	-0.28	0.577	-0.079	-0.498	0.121	-0.001	0.164	0.09	0.124	0.141
-0.432	-0.715	-0.283	0.573	-0.074	-0.498	0.116	-0.006	0.159	0.088	0.121	0.139
-0.43	-0.723	-0.292	0.577	-0.07	-0.507	0.119	-0.007	0.157	0.087	0.121	0.137
-0.429	-0.726	-0.297	0.577	-0.066	-0.511	0.123	0.006	0.161	0.091	0.123	0.139
-0.43	-0.732	-0.301	0.581	-0.065	-0.516	0.123	0.003	0.16	0.09	0.12	0.138
-0.433	-0.742	-0.308	0.588	-0.063	-0.524	0.124	0.004	0.163	0.089	0.121	0.138
-0.438	-0.751	-0.314	0.595	-0.062	-0.532	0.122	-0.002	0.155	0.084	0.117	0.134
-0.449	-0.747	-0.298	0.598	-0.075	-0.522	0.135	0.005	0.159	0.088	0.121	0.137
-0.455	-0.745	-0.289	0.6	-0.083	-0.517	0.138	0.016	0.169	0.094	0.128	0.142
-0.448	-0.752	-0.303	0.6	-0.072	-0.527	0.133	0.005	0.16	0.086	0.12	0.137
-0.44	-0.748	-0.307	0.594	-0.066	-0.527	0.135	0.002	0.157	0.082	0.116	0.133
-0.444	-0.748	-0.304	0.596	-0.07	-0.526	0.13	-0.004	0.155	0.079	0.113	0.131
-0.435	-0.741	-0.305	0.588	-0.065	-0.522	0.134	0.004	0.155	0.076	0.112	0.13
-0.435	-0.741	-0.306	0.588	-0.065	-0.523	0.135	0.007	0.157	0.076	0.111	0.128
-0.45	-0.744	-0.293	0.597	-0.078	-0.518	0.142	0.007	0.155	0.076	0.11	0.128
-0.45	-0.741	-0.291	0.595	-0.079	-0.515	0.145	0.008	0.158	0.077	0.11	0.129
-0.446	-0.742	-0.296	0.593	-0.074	-0.519	0.143	0.008	0.164	0.081	0.111	0.132
-0.447	-0.745	-0.297	0.596	-0.075	-0.52	0.145	0.008	0.164	0.081	0.111	0.131
-0.45	-0.746	-0.295	0.598	-0.077	-0.52	0.145	0.007	0.158	0.077	0.11	0.128
-0.448	-0.744	-0.296	0.596	-0.076	-0.519	0.155	0.011	0.164	0.081	0.111	0.129
-0.449	-0.747	-0.298	0.597	-0.075	-0.522	0.161	0.017	0.172	0.087	0.115	0.132
-0.453	-0.752	-0.299	0.603	-0.077	-0.525	0.168	0.022	0.173	0.088	0.115	0.135
-0.452	-0.754	-0.302	0.603	-0.075	-0.527	0.168	0.025	0.177	0.093	0.117	0.137
-0.449	-0.75	-0.301	0.599	-0.073	-0.525	0.174	0.033	0.182	0.099	0.121	0.141
-0.45	-0.75	-0.299	0.599	-0.075	-0.524	0.181	0.034	0.185	0.099	0.12	0.14
-0.457	-0.754	-0.297	0.606	-0.08	-0.526	0.181	0.026	0.181	0.097	0.117	0.138
-0.456	-0.757	-0.301	0.607	-0.077	-0.529	0.181	0.029	0.182	0.097	0.117	0.136
-0.444	-0.751	-0.307	0.597	-0.068	-0.529	0.177	0.038	0.188	0.1	0.119	0.138
-0.447	-0.748	-0.3	0.597	-0.073	-0.523	0.192	0.04	0.189	0.101	0.118	0.138
-0.462	-0.754	-0.292	0.608	-0.085	-0.523	0.193	0.037	0.186	0.097	0.116	0.136
-0.466	-0.756	-0.291	0.611	-0.087	-0.524	0.191	0.036	0.184	0.093	0.113	0.134
-0.468	-0.754	-0.287	0.611	-0.09	-0.52	0.205	0.04	0.187	0.093	0.112	0.131
-0.466	-0.759	-0.293	0.613	-0.086	-0.526	0.211	0.038	0.186	0.092	0.111	0.13
-0.457	-0.766	-0.31	0.611	-0.073	-0.538	0.206	0.042	0.189	0.094	0.113	0.134
-0.458	-0.772	-0.315	0.615	-0.071	-0.543	0.216	0.048	0.194	0.097	0.115	0.135
-0.471	-0.775	-0.303	0.623	-0.084	-0.539	0.231	0.032	0.186	0.089	0.109	0.128
-0.471	-0.75	-0.279	0.61	-0.096	-0.513	0.216	0.028	0.178	0.082	0.1	0.121
-0.471	-0.737	-0.266	0.604	-0.102	-0.501	0.215	0.028	0.175	0.077	0.096	0.116
-0.474	-0.744	-0.27	0.609	-0.102	-0.506	0.229	0.024	0.174	0.079	0.097	0.117
-0.478	-0.754	-0.276	0.616	-0.101	-0.514	0.231	0.024	0.177	0.082	0.097	0.119
-0.485	-0.759	-0.274	0.622	-0.106	-0.516	0.229	0.025	0.177	0.082	0.098	0.119
-0.48	-0.755	-0.275	0.618	-0.102	-0.515	0.231	0.018	0.172	0.081	0.099	0.119
-0.485	-0.76	-0.274	0.623	-0.106	-0.516	0.234	0.018	0.172	0.081	0.099	0.12
-0.488	-0.747	-0.259	0.618	-0.115	-0.503	0.235	0.025	0.179	0.087	0.104	0.126
-0.487	-0.749	-0.261	0.618	-0.113	-0.504	0.241	0.021	0.175	0.085	0.101	0.122
-0.494	-0.758	-0.264	0.626	-0.116	-0.511	0.246	0.011	0.167	0.076	0.095	0.117
-0.494	-0.763	-0.269	0.628	-0.113	-0.516	0.243	-0.002	0.159	0.067	0.087	0.111
-0.5	-0.765	-0.265	0.633	-0.118	-0.515	0.244	-0.003	0.154	0.063	0.085	0.107
-0.499	-0.757	-0.258	0.627	-0.12	-0.507	0.251	-0.004	0.153	0.06	0.083	0.105
-0.504	-0.765	-0.261	0.634	-0.122	-0.512	0.257	-0.017	0.147	0.053	0.076	0.101
-0.519	-0.769	-0.249	0.644	-0.135	-0.509	0.254	-0.025	0.14	0.048	0.073	0.098
-0.518	-0.753	-0.234	0.635	-0.142	-0.493	0.256	-0.027	0.139	0.047	0.073	0.099
-0.517	-0.747	-0.23	0.631	-0.143	-0.487	0.253	-0.029	0.137	0.045	0.073	0.098
-0.52	-0.752	-0.232	0.636	-0.144	-0.491	0.252	-0.034	0.132	0.04	0.068	0.092
-0.52	-0.75	-0.229	0.635	-0.145	-0.489	0.257	-0.041	0.13	0.037	0.065	0.09
-0.518	-0.746	-0.228	0.632	-0.145	-0.486	0.259	-0.052	0.125	0.036	0.064	0.091
-0.52	-0.744	-0.224	0.631	-0.148	-0.483	0.251	-0.058	0.123	0.034	0.062	0.09
-0.52	-0.743	-0.223	0.631	-0.149	-0.482	0.242	-0.06	0.12	0.032	0.061	0.089
-0.514	-0.74	-0.225	0.627	-0.145	-0.482	0.253	-0.054	0.124	0.036	0.066	0.093
-0.506	-0.735	-0.229	0.62	-0.139	-0.481	0.25	-0.053	0.126	0.037	0.067	0.095
-0.497	-0.727	-0.23	0.612	-0.134	-0.478	0.236	-0.056	0.124	0.04	0.069	0.097
-0.494	-0.729	-0.235	0.612	-0.13	-0.481	0.233	-0.056	0.125	0.043	0.072	0.1
-0.495	-0.737	-0.242	0.616	-0.127	-0.489	0.227	-0.06	0.12	0.04	0.07	0.098
-0.484	-0.73	-0.245	0.607	-0.119	-0.487	0.21	-0.062	0.12	0.041	0.072	0.102
-0.477	-0.73	-0.253	0.604	-0.113	-0.491	0.2	-0.061	0.121	0.043	0.075	0.104
-0.478	-0.722	-0.243	0.6	-0.117	-0.482	0.193	-0.06	0.126	0.046	0.08	0.107
-0.472	-0.716	-0.243	0.594	-0.115	-0.479	0.181	-0.062	0.126	0.048	0.083	0.11
-0.469	-0.723	-0.254	0.596	-0.107	-0.488	0.168	-0.066	0.121	0.046	0.082	0.111
-0.468	-0.723	-0.255	0.595	-0.106	-0.488	0.156	-0.068	0.12	0.046	0.081	0.11
-0.468	-0.719	-0.252	0.593	-0.108	-0.485	0.145	-0.067	0.116	0.044	0.081	0.11
-0.469	-0.724	-0.254	0.597	-0.108	-0.488	0.129	-0.073	0.108	0.036	0.074	0.104
-0.46	-0.729	-0.269	0.595	-0.096	-0.498	0.11	-0.086	0.101	0.03	0.071	0.102
-0.448	-0.724	-0.277	0.586	-0.086	-0.5	0.094	-0.08	0.103	0.032	0.075	0.107
-0.444	-0.73	-0.286	0.587	-0.079	-0.508	0.08	-0.08	0.099	0.029	0.071	0.104
-0.444	-0.731	-0.288	0.587	-0.078	-0.509	0.067	-0.082	0.092	0.024	0.068	0.101
-0.437	-0.732	-0.294	0.584	-0.071	-0.512	0.057	-0.083	0.09	0.021	0.065	0.099
-0.439	-0.738	-0.299	0.588	-0.07	-0.518	0.053	-0.085	0.086	0.019	0.062	0.097
-0.454	-0.75	-0.295	0.602	-0.08	-0.522	0.06	-0.068	0.093	0.023	0.065	0.098
-0.453	-0.76	-0.307	0.606	-0.073	-0.533	0.069	-0.061	0.097	0.025	0.064	0.096
-0.444	-0.761	-0.318	0.602	-0.063	-0.539	0.067	-0.056	0.099	0.026	0.066	0.098
-0.441	-0.763	-0.323	0.602	-0.059	-0.543	0.07	-0.05	0.102	0.032	0.069	0.1
-0.436	-0.763	-0.327	0.6	-0.055	-0.544	0.073	-0.045	0.104	0.035	0.072	0.102
-0.435	-0.769	-0.334	0.603	-0.051	-0.551	0.073	-0.039	0.108	0.035	0.072	0.104
-0.439	-0.78	-0.341	0.61	-0.049	-0.56	0.076	-0.04	0.107	0.035	0.071	0.102
-0.436	-0.78	-0.344	0.608	-0.046	-0.561	0.077	-0.032	0.113	0.041	0.074	0.105
-0.434	-0.775	-0.341	0.605	-0.047	-0.557	0.073	-0.035	0.112	0.039	0.075	0.106
-0.428	-0.771	-0.343	0.6	-0.043	-0.556	0.08	-0.035	0.112	0.038	0.075	0.107
-0.424	-0.767	-0.343	0.596	-0.041	-0.555	0.084	-0.024	0.116	0.043	0.078	0.108
-0.421	-0.773	-0.351	0.597	-0.035	-0.562	0.08	-0.029	0.11	0.038	0.075	0.105
-0.412	-0.771	-0.359	0.592	-0.027	-0.565	0.077	-0.029	0.111	0.036	0.073	0.106
-0.413	-0.768	-0.355	0.59	-0.029	-0.561	0.069	-0.029	0.107	0.035	0.072	0.105
-0.412	-0.767	-0.355	0.59	-0.029	-0.561	0.068	-0.032	0.105	0.031	0.07	0.103
-0.408	-0.761	-0.353	0.585	-0.028	-0.557	0.069	-0.031	0.107	0.031	0.07	0.104
-0.407	-0.76	-0.352	0.583	-0.028	-0.556	0.068	-0.032	0.106	0.03	0.071	0.103
-0.419	-0.759	-0.34	0.589	-0.04	-0.549	0.073	-0.026	0.11	0.034	0.075	0.109
-0.427	-0.763	-0.337	0.595	-0.045	-0.55	0.076	-0.023	0.113	0.035	0.077	0.111
-0.413	-0.758	-0.344	0.586	-0.035	-0.551	0.075	-0.025	0.107	0.032	0.074	0.106
-0.408	-0.751	-0.343	0.579	-0.033	-0.546	0.073	-0.028	0.105	0.032	0.075	0.107
-0.408	-0.751	-0.343	0.58	-0.033	-0.547	0.074	-0.025	0.108	0.035	0.076	0.108
-0.409	-0.753	-0.344	0.581	-0.033	-0.548	0.081	-0.021	0.11	0.035	0.075	0.109
-0.408	-0.758	-0.35	0.583	-0.029	-0.554	0.085	-0.021	0.11	0.036	0.077	0.108
-0.408	-0.761	-0.353	0.585	-0.028	-0.557	0.087	-0.021	0.109	0.038	0.076	0.11
-0.408	-0.765	-0.357	0.587	-0.025	-0.561	0.085	-0.018	0.111	0.04	0.076	0.112
-0.409	-0.767	-0.357	0.588	-0.026	-0.562	0.085	-0.018	0.11	0.04	0.077	0.112
-0.411	-0.768	-0.357	0.59	-0.028	-0.562	0.093	-0.016	0.112	0.043	0.08	0.114
-0.41	-0.768	-0.358	0.59	-0.026	-0.563	0.088	-0.017	0.112	0.04	0.076	0.111
-0.414	-0.765	-0.35	0.59	-0.033	-0.557	0.086	-0.022	0.104	0.034	0.07	0.106
-0.412	-0.761	-0.349	0.586	-0.032	-0.554	0.089	-0.023	0.102	0.034	0.072	0.107
-0.408	-0.76	-0.352	0.584	-0.028	-0.556	0.085	-0.025	0.101	0.031	0.07	0.106
-0.411	-0.762	-0.351	0.587	-0.03	-0.556	0.086	-0.029	0.098	0.029	0.07	0.105
-0.41	-0.76	-0.35	0.585	-0.03	-0.555	0.085	-0.029	0.098	0.029	0.071	0.105
-0.413	-0.762	-0.349	0.588	-0.032	-0.555	0.086	-0.029	0.097	0.026	0.068	0.104
-0.411	-0.758	-0.347	0.585	-0.032	-0.553	0.081	-0.04	0.089	0.021	0.065	0.101
-0.409	-0.753	-0.344	0.581	-0.033	-0.548	0.081	-0.04	0.09	0.021	0.065	0.101
-0.415	-0.755	-0.34	0.586	-0.038	-0.547	0.088	-0.028	0.095	0.025	0.068	0.103
-0.414	-0.755	-0.342	0.585	-0.036	-0.548	0.083	-0.034	0.089	0.021	0.066	0.1
-0.411	-0.752	-0.342	0.582	-0.035	-0.547	0.084	-0.04	0.086	0.017	0.061	0.097
-0.413	-0.752	-0.339	0.582	-0.037	-0.545	0.083	-0.041	0.086	0.017	0.062	0.097
-0.412	-0.756	-0.343	0.584	-0.035	-0.549	0.084	-0.041	0.086	0.018	0.062	0.098
-0.407	-0.751	-0.343	0.579	-0.033	-0.547	0.086	-0.037	0.089	0.018	0.062	0.1
-0.406	-0.751	-0.344	0.579	-0.031	-0.547	0.086	-0.037	0.087	0.019	0.065	0.1
-0.41	-0.759	-0.349	0.585	-0.03	-0.554	0.087	-0.037	0.088	0.021	0.064	0.099
-0.418	-0.761	-0.343	0.59	-0.037	-0.552	0.089	-0.035	0.088	0.022	0.065	0.101
-0.419	-0.762	-0.343	0.591	-0.038	-0.552	0.091	-0.039	0.086	0.021	0.065	0.099
-0.412	-0.761	-0.349	0.587	-0.032	-0.555	0.089	-0.039	0.086	0.021	0.064	0.099
-0.409	-0.757	-0.347	0.583	-0.031	-0.552	0.089	-0.029	0.088	0.023	0.064	0.102
-0.409	-0.754	-0.345	0.582	-0.032	-0.549	0.093	-0.034	0.091	0.025	0.065	0.101
-0.404	-0.752	-0.349	0.578	-0.027	-0.55	0.094	-0.035	0.088	0.022	0.064	0.099
-0.401	-0.752	-0.351	0.576	-0.025	-0.551	0.091	-0.034	0.084	0.018	0.059	0.098
-0.409	-0.755	-0.346	0.582	-0.032	-0.55	0.091	-0.035	0.084	0.018	0.061	0.097
-0.411	-0.752	-0.341	0.582	-0.035	-0.546	0.088	-0.037	0.088	0.017	0.059	0.095
-0.406	-0.751	-0.344	0.579	-0.031	-0.547	0.086	-0.043	0.084	0.013	0.058	0.093
-0.405	-0.749	-0.344	0.576	-0.03	-0.546	0.085	-0.041	0.082	0.012	0.059	0.095
-0.4	-0.742	-0.342	0.571	-0.029	-0.541	0.084	-0.043	0.081	0.01	0.054	0.091
-0.399	-0.74	-0.342	0.569	-0.029	-0.541	0.084	-0.047	0.078	0.007	0.052	0.09
-0.397	-0.74	-0.344	0.568	-0.026	-0.541	0.084	-0.047	0.079	0.009	0.053	0.091
-0.395	-0.737	-0.342	0.566	-0.026	-0.539	0.081	-0.053	0.074	0.008	0.052	0.09
-0.402	-0.74	-0.339	0.571	-0.031	-0.539	0.082	-0.048	0.076	0.009	0.053	0.092
-0.398	-0.742	-0.344	0.57	-0.027	-0.542	0.081	-0.048	0.075	0.01	0.051	0.092
-0.397	-0.749	-0.351	0.573	-0.023	-0.549	0.08	-0.054	0.069	0.004	0.044	0.085
-0.408	-0.753	-0.345	0.58	-0.031	-0.548	0.088	-0.053	0.07	0.005	0.045	0.085
-0.406	-0.751	-0.345	0.579	-0.03	-0.548	0.086	-0.052	0.071	0.008	0.045	0.086
-0.4	-0.751	-0.351	0.575	-0.025	-0.551	0.088	-0.051	0.072	0.009	0.048	0.087
-0.399	-0.746	-0.347	0.572	-0.026	-0.546	0.092	-0.051	0.075	0.011	0.05	0.089
-0.397	-0.745	-0.347	0.571	-0.025	-0.545	0.088	-0.046	0.077	0.011	0.051	0.091
-0.398	-0.739	-0.341	0.568	-0.029	-0.539	0.093	-0.049	0.077	0.012	0.051	0.091
-0.406	-0.741	-0.335	0.574	-0.036	-0.537	0.096	-0.055	0.077	0.011	0.049	0.089
-0.401	-0.739	-0.338	0.57	-0.032	-0.538	0.091	-0.051	0.079	0.013	0.051	0.091
-0.395	-0.728	-0.333	0.561	-0.03	-0.53	0.096	-0.047	0.076	0.011	0.051	0.092
-0.401	-0.729	-0.328	0.565	-0.036	-0.528	0.095	-0.051	0.075	0.007	0.049	0.091
-0.397	-0.728	-0.332	0.562	-0.033	-0.529	0.093	-0.06	0.072	0.003	0.045	0.086
-0.394	-0.722	-0.328	0.557	-0.033	-0.524	0.103	-0.051	0.078	0.006	0.048	0.087
-0.406	-0.727	-0.321	0.567	-0.043	-0.523	0.096	-0.05	0.077	0.007	0.047	0.087
-0.412	-0.731	-0.319	0.571	-0.047	-0.524	0.087	-0.056	0.072	0.002	0.043	0.084
-0.406	-0.72	-0.315	0.562	-0.045	-0.517	0.093	-0.051	0.076	0.004	0.046	0.086
-0.399	-0.715	-0.316	0.556	-0.042	-0.515	0.096	-0.05	0.079	0.008	0.049	0.088
-0.394	-0.711	-0.317	0.552	-0.038	-0.513	0.098	-0.049	0.082	0.011	0.051	0.091
-0.39	-0.708	-0.318	0.548	-0.036	-0.512	0.102	-0.048	0.083	0.013	0.053	0.095
-0.392	-0.705	-0.314	0.548	-0.039	-0.509	0.102	-0.047	0.087	0.018	0.058	0.099
-0.392	-0.708	-0.316	0.549	-0.038	-0.511	0.103	-0.044	0.088	0.019	0.056	0.098
-0.388	-0.71	-0.322	0.548	-0.033	-0.515	0.105	-0.042	0.089	0.02	0.058	0.1
-0.383	-0.709	-0.326	0.545	-0.029	-0.517	0.103	-0.041	0.09	0.021	0.059	0.101
-0.381	-0.711	-0.33	0.545	-0.026	-0.52	0.105	-0.042	0.089	0.022	0.058	0.099
-0.389	-0.711	-0.322	0.549	-0.033	-0.516	0.108	-0.039	0.095	0.026	0.062	0.103
-0.389	-0.709	-0.321	0.548	-0.034	-0.514	0.11	-0.037	0.095	0.029	0.064	0.104
-0.389	-0.706	-0.317	0.547	-0.036	-0.511	0.111	-0.038	0.095	0.028	0.064	0.105
-0.39	-0.714	-0.324	0.551	-0.033	-0.518	0.107	-0.04	0.095	0.024	0.061	0.102
-0.384	-0.715	-0.331	0.548	-0.026	-0.522	0.108	-0.042	0.091	0.022	0.059	0.099
-0.386	-0.713	-0.327	0.549	-0.029	-0.519	0.107	-0.042	0.09	0.021	0.06	0.1
-0.4	-0.722	-0.322	0.56	-0.038	-0.521	0.106	-0.044	0.089	0.018	0.058	0.1
-0.403	-0.72	-0.317	0.561	-0.043	-0.518	0.103	-0.049	0.086	0.015	0.056	0.098
-0.393	-0.713	-0.321	0.552	-0.036	-0.516	0.101	-0.049	0.086	0.015	0.057	0.098
-0.39	-0.713	-0.323	0.551	-0.033	-0.517	0.099	-0.051	0.086	0.013	0.057	0.097
-0.39	-0.717	-0.327	0.553	-0.031	-0.521	0.096	-0.053	0.084	0.011	0.054	0.096
-0.387	-0.714	-0.327	0.55	-0.03	-0.52	0.097	-0.051	0.086	0.013	0.057	0.098
-0.384	-0.71	-0.326	0.546	-0.029	-0.517	0.097	-0.049	0.086	0.015	0.059	0.099
-0.378	-0.712	-0.334	0.544	-0.022	-0.522	0.096	-0.051	0.082	0.011	0.057	0.097
-0.377	-0.714	-0.337	0.545	-0.021	-0.524	0.095	-0.056	0.082	0.009	0.053	0.094
-0.377	-0.716	-0.339	0.546	-0.019	-0.527	0.096	-0.056	0.082	0.009	0.053	0.093
-0.376	-0.717	-0.34	0.546	-0.018	-0.528	0.095	-0.052	0.084	0.011	0.053	0.092
-0.376	-0.718	-0.342	0.547	-0.017	-0.53	0.093	-0.053	0.085	0.013	0.054	0.092
-0.376	-0.72	-0.344	0.548	-0.015	-0.532	0.096	-0.054	0.083	0.013	0.054	0.09
-0.379	-0.721	-0.342	0.549	-0.018	-0.531	0.096	-0.049	0.087	0.015	0.056	0.092
-0.374	-0.718	-0.344	0.546	-0.015	-0.53	0.096	-0.049	0.089	0.018	0.06	0.097
-0.371	-0.718	-0.346	0.543	-0.012	-0.531	0.1	-0.048	0.089	0.019	0.059	0.097
-0.367	-0.716	-0.348	0.541	-0.009	-0.532	0.097	-0.053	0.087	0.015	0.058	0.097
-0.368	-0.716	-0.346	0.542	-0.011	-0.531	0.098	-0.056	0.085	0.014	0.059	0.097
-0.371	-0.718	-0.346	0.544	-0.013	-0.532	0.095	-0.054	0.085	0.014	0.057	0.096
-0.367	-0.717	-0.349	0.541	-0.009	-0.532	0.091	-0.058	0.082	0.009	0.054	0.094
-0.359	-0.716	-0.356	0.537	-0.002	-0.535	0.092	-0.056	0.082	0.008	0.055	0.093
-0.355	-0.711	-0.355	0.533	0	-0.533	0.093	-0.057	0.081	0.007	0.056	0.093
-0.358	-0.709	-0.351	0.533	-0.004	-0.53	0.092	-0.058	0.08	0.005	0.056	0.094
-0.359	-0.707	-0.347	0.532	-0.005	-0.527	0.086	-0.061	0.08	0.005	0.056	0.094
-0.361	-0.703	-0.341	0.532	-0.01	-0.522	0.086	-0.066	0.074	0.002	0.053	0.09
-0.364	-0.706	-0.342	0.535	-0.011	-0.524	0.089	-0.067	0.077	0.001	0.053	0.089
-0.372	-0.714	-0.342	0.542	-0.015	-0.527	0.087	-0.067	0.075	-0.002	0.05	0.086
-0.378	-0.715	-0.337	0.546	-0.021	-0.525	0.089	-0.07	0.07	-0.004	0.048	0.085
-0.378	-0.71	-0.331	0.543	-0.024	-0.52	0.092	-0.07	0.074	0.001	0.051	0.088
-0.381	-0.71	-0.33	0.545	-0.025	-0.519	0.092	-0.069	0.074	-0.003	0.047	0.085
-0.383	-0.71	-0.327	0.545	-0.028	-0.518	0.095	-0.071	0.072	-0.003	0.046	0.084
-0.389	-0.714	-0.325	0.55	-0.032	-0.519	0.1	-0.068	0.074	-0.001	0.049	0.084
-0.392	-0.716	-0.325	0.553	-0.034	-0.52	0.101	-0.067	0.075	-0.001	0.052	0.086
-0.388	-0.718	-0.329	0.552	-0.029	-0.523	0.098	-0.069	0.073	0.002	0.052	0.088
-0.383	-0.725	-0.342	0.554	-0.021	-0.533	0.096	-0.067	0.073	0.002	0.051	0.086
-0.386	-0.726	-0.341	0.555	-0.023	-0.533	0.101	-0.064	0.076	0.004	0.052	0.088
-0.389	-0.723	-0.335	0.555	-0.027	-0.528	0.1	-0.062	0.078	0.006	0.054	0.091
-0.385	-0.72	-0.336	0.552	-0.025	-0.527	0.102	-0.061	0.08	0.007	0.057	0.092
-0.383	-0.72	-0.337	0.551	-0.023	-0.528	0.105	-0.062	0.076	0.004	0.051	0.089
-0.386	-0.726	-0.341	0.555	-0.023	-0.533	0.1	-0.066	0.072	0.001	0.048	0.087
-0.39	-0.727	-0.337	0.558	-0.026	-0.531	0.103	-0.067	0.07	-0.004	0.047	0.085
-0.385	-0.723	-0.339	0.553	-0.023	-0.53	0.098	-0.067	0.07	-0.004	0.045	0.083
-0.381	-0.723	-0.342	0.551	-0.019	-0.531	0.089	-0.07	0.07	-0.006	0.043	0.08
-0.389	-0.728	-0.339	0.558	-0.025	-0.533	0.092	-0.074	0.066	-0.013	0.039	0.074
-0.392	-0.735	-0.343	0.564	-0.025	-0.538	0.09	-0.076	0.064	-0.015	0.035	0.073
-0.388	-0.729	-0.341	0.558	-0.024	-0.534	0.089	-0.078	0.06	-0.018	0.03	0.068
-0.394	-0.729	-0.335	0.561	-0.029	-0.531	0.088	-0.083	0.058	-0.021	0.029	0.066
-0.396	-0.727	-0.332	0.561	-0.032	-0.529	0.091	-0.076	0.064	-0.015	0.035	0.073
-0.407	-0.724	-0.316	0.565	-0.046	-0.519	0.098	-0.069	0.068	-0.01	0.042	0.079
-0.413	-0.729	-0.316	0.571	-0.049	-0.522	0.097	-0.071	0.071	-0.007	0.043	0.08
-0.401	-0.734	-0.333	0.568	-0.034	-0.533	0.096	-0.066	0.067	-0.011	0.038	0.075
-0.402	-0.738	-0.337	0.57	-0.033	-0.537	0.099	-0.07	0.062	-0.014	0.035	0.072
-0.405	-0.738	-0.333	0.571	-0.036	-0.535	0.1	-0.072	0.068	-0.008	0.039	0.075
-0.408	-0.742	-0.334	0.575	-0.037	-0.537	0.1	-0.071	0.066	-0.009	0.039	0.075
-0.409	-0.746	-0.336	0.577	-0.036	-0.54	0.101	-0.07	0.066	-0.009	0.038	0.074
-0.409	-0.75	-0.34	0.579	-0.035	-0.544	0.102	-0.067	0.067	-0.006	0.041	0.076
-0.404	-0.743	-0.339	0.573	-0.033	-0.541	0.102	-0.067	0.068	-0.004	0.041	0.078
-0.403	-0.736	-0.333	0.569	-0.035	-0.534	0.103	-0.066	0.07	-0.004	0.043	0.078
-0.404	-0.737	-0.334	0.57	-0.035	-0.535	0.102	-0.068	0.067	-0.006	0.042	0.077
-0.404	-0.735	-0.332	0.569	-0.036	-0.533	0.102	-0.067	0.07	-0.005	0.043	0.078
-0.406	-0.732	-0.326	0.569	-0.04	-0.528	0.102	-0.068	0.069	-0.005	0.044	0.077
-0.406	-0.73	-0.325	0.568	-0.041	-0.527	0.105	-0.072	0.064	-0.011	0.04	0.076
-0.413	-0.734	-0.32	0.574	-0.046	-0.527	0.102	-0.072	0.062	-0.013	0.038	0.073
-0.41	-0.728	-0.318	0.569	-0.046	-0.522	0.1	-0.072	0.063	-0.011	0.04	0.074
-0.409	-0.73	-0.321	0.569	-0.044	-0.524	0.1	-0.074	0.061	-0.015	0.037	0.071
-0.414	-0.731	-0.317	0.573	-0.049	-0.523	0.096	-0.077	0.059	-0.019	0.036	0.069
-0.409	-0.73	-0.321	0.57	-0.044	-0.525	0.098	-0.078	0.059	-0.018	0.035	0.07
-0.414	-0.737	-0.322	0.576	-0.046	-0.529	0.098	-0.078	0.058	-0.018	0.034	0.069
-0.414	-0.733	-0.319	0.574	-0.048	-0.525	0.1	-0.077	0.06	-0.018	0.034	0.069
-0.41	-0.728	-0.318	0.569	-0.046	-0.522	0.099	-0.076	0.06	-0.016	0.035	0.07
-0.411	-0.728	-0.317	0.57	-0.047	-0.522	0.101	-0.077	0.059	-0.016	0.035	0.07
-0.412	-0.729	-0.317	0.571	-0.048	-0.523	0.104	-0.075	0.062	-0.013	0.038	0.069
-0.415	-0.731	-0.316	0.573	-0.05	-0.523	0.105	-0.073	0.06	-0.014	0.037	0.07
-0.419	-0.736	-0.317	0.578	-0.051	-0.526	0.104	-0.074	0.058	-0.014	0.035	0.068
-0.426	-0.741	-0.315	0.583	-0.056	-0.527	0.102	-0.077	0.058	-0.013	0.035	0.068
-0.424	-0.739	-0.315	0.581	-0.054	-0.526	0.105	-0.076	0.057	-0.015	0.036	0.069
-0.424	-0.732	-0.307	0.578	-0.059	-0.519	0.104	-0.079	0.057	-0.015	0.038	0.068
-0.426	-0.733	-0.306	0.58	-0.06	-0.519	0.102	-0.082	0.054	-0.018	0.035	0.065
-0.427	-0.736	-0.309	0.581	-0.059	-0.522	0.101	-0.083	0.052	-0.022	0.032	0.064
-0.429	-0.734	-0.304	0.581	-0.062	-0.518	0.101	-0.083	0.053	-0.02	0.034	0.066
-0.429	-0.732	-0.302	0.58	-0.064	-0.516	0.1	-0.082	0.054	-0.019	0.035	0.068
-0.427	-0.725	-0.298	0.576	-0.065	-0.511	0.096	-0.086	0.05	-0.023	0.032	0.065
-0.429	-0.726	-0.296	0.577	-0.067	-0.51	0.097	-0.085	0.049	-0.025	0.032	0.064
-0.432	-0.727	-0.295	0.579	-0.069	-0.51	0.1	-0.085	0.051	-0.025	0.032	0.062
-0.427	-0.725	-0.298	0.576	-0.065	-0.511	0.092	-0.091	0.047	-0.029	0.028	0.059
-0.432	-0.726	-0.294	0.579	-0.07	-0.51	0.087	-0.093	0.044	-0.032	0.025	0.059
-0.437	-0.726	-0.289	0.582	-0.074	-0.507	0.095	-0.092	0.045	-0.033	0.025	0.058
-0.438	-0.729	-0.29	0.583	-0.073	-0.509	0.093	-0.091	0.047	-0.032	0.026	0.058
-0.439	-0.73	-0.291	0.584	-0.073	-0.511	0.091	-0.092	0.043	-0.034	0.024	0.056
-0.441	-0.737	-0.295	0.589	-0.073	-0.515	0.094	-0.094	0.042	-0.035	0.024	0.057
-0.446	-0.74	-0.294	0.592	-0.075	-0.516	0.099	-0.093	0.042	-0.033	0.024	0.057
-0.443	-0.732	-0.289	0.587	-0.077	-0.51	0.101	-0.092	0.043	-0.035	0.021	0.055
-0.445	-0.731	-0.286	0.588	-0.079	-0.508	0.098	-0.088	0.046	-0.03	0.022	0.057
-0.445	-0.741	-0.295	0.593	-0.074	-0.518	0.102	-0.088	0.046	-0.029	0.025	0.058
-0.443	-0.744	-0.301	0.594	-0.071	-0.522	0.103	-0.087	0.047	-0.03	0.023	0.058
-0.447	-0.743	-0.295	0.595	-0.075	-0.519	0.108	-0.083	0.05	-0.026	0.024	0.059
-0.446	-0.745	-0.299	0.595	-0.073	-0.521	0.109	-0.082	0.051	-0.028	0.026	0.06
-0.447	-0.75	-0.303	0.598	-0.071	-0.526	0.111	-0.081	0.049	-0.028	0.024	0.058
-0.447	-0.744	-0.297	0.595	-0.074	-0.52	0.113	-0.078	0.051	-0.029	0.025	0.058
-0.432	-0.738	-0.305	0.585	-0.064	-0.521	0.107	-0.076	0.056	-0.029	0.026	0.058
-0.429	-0.742	-0.312	0.585	-0.058	-0.527	0.113	-0.072	0.057	-0.026	0.027	0.059
-0.435	-0.74	-0.305	0.588	-0.065	-0.522	0.117	-0.068	0.059	-0.025	0.029	0.062
-0.438	-0.741	-0.303	0.59	-0.068	-0.521	0.115	-0.07	0.059	-0.026	0.028	0.061
-0.437	-0.745	-0.307	0.591	-0.065	-0.525	0.114	-0.069	0.058	-0.027	0.026	0.061
-0.436	-0.747	-0.31	0.591	-0.063	-0.528	0.117	-0.068	0.058	-0.028	0.024	0.059
-0.439	-0.743	-0.304	0.591	-0.068	-0.523	0.121	-0.069	0.059	-0.03	0.024	0.057
-0.44	-0.748	-0.307	0.594	-0.066	-0.527	0.121	-0.067	0.059	-0.032	0.024	0.059
-0.44	-0.748	-0.307	0.594	-0.066	-0.527	0.124	-0.064	0.061	-0.029	0.024	0.06
-0.436	-0.746	-0.309	0.591	-0.064	-0.527	0.127	-0.061	0.062	-0.026	0.026	0.063
-0.435	-0.744	-0.308	0.59	-0.064	-0.525	0.131	-0.059	0.065	-0.024	0.028	0.064
-0.439	-0.738	-0.298	0.588	-0.07	-0.518	0.136	-0.057	0.068	-0.021	0.028	0.064
-0.434	-0.743	-0.308	0.589	-0.063	-0.525	0.142	-0.051	0.072	-0.016	0.03	0.068
-0.435	-0.743	-0.308	0.589	-0.064	-0.525	0.146	-0.049	0.074	-0.013	0.034	0.071
-0.438	-0.74	-0.303	0.589	-0.068	-0.521	0.151	-0.046	0.08	-0.008	0.038	0.076
-0.434	-0.736	-0.301	0.585	-0.067	-0.518	0.16	-0.04	0.083	-0.004	0.042	0.076
-0.439	-0.739	-0.3	0.589	-0.07	-0.519	0.16	-0.038	0.082	-0.006	0.04	0.073
-0.434	-0.732	-0.297	0.583	-0.069	-0.514	0.157	-0.038	0.087	-0.002	0.042	0.075
-0.429	-0.73	-0.301	0.58	-0.065	-0.515	0.165	-0.03	0.094	0.002	0.045	0.08
-0.429	-0.735	-0.306	0.582	-0.061	-0.52	0.171	-0.032	0.093	0.002	0.044	0.08
-0.426	-0.732	-0.306	0.579	-0.06	-0.519	0.17	-0.034	0.096	0.004	0.044	0.08
-0.436	-0.738	-0.301	0.587	-0.068	-0.519	0.174	-0.023	0.099	0.006	0.049	0.083
-0.438	-0.733	-0.295	0.585	-0.071	-0.513	0.177	-0.022	0.099	0.005	0.049	0.084
-0.433	-0.735	-0.301	0.584	-0.066	-0.517	0.176	-0.021	0.102	0.005	0.049	0.083
-0.431	-0.734	-0.303	0.583	-0.064	-0.518	0.176	-0.021	0.102	0.004	0.048	0.081
-0.424	-0.725	-0.301	0.575	-0.061	-0.512	0.182	-0.017	0.108	0.008	0.052	0.085
-0.425	-0.717	-0.291	0.571	-0.067	-0.504	0.185	-0.014	0.112	0.01	0.056	0.087
-0.426	-0.718	-0.291	0.572	-0.067	-0.504	0.186	-0.013	0.112	0.009	0.057	0.086
-0.431	-0.727	-0.295	0.579	-0.068	-0.51	0.19	-0.009	0.115	0.012	0.056	0.086
-0.436	-0.73	-0.293	0.583	-0.071	-0.511	0.192	-0.011	0.113	0.01	0.056	0.084
-0.439	-0.73	-0.291	0.584	-0.073	-0.51	0.204	-0.006	0.117	0.011	0.057	0.084
-0.436	-0.733	-0.296	0.585	-0.07	-0.514	0.214	0.002	0.121	0.018	0.06	0.086
-0.434	-0.744	-0.31	0.589	-0.062	-0.527	0.221	0.008	0.129	0.024	0.065	0.092
-0.435	-0.75	-0.314	0.593	-0.061	-0.532	0.231	0.013	0.134	0.029	0.07	0.096
-0.433	-0.754	-0.321	0.593	-0.057	-0.537	0.238	0.015	0.135	0.03	0.069	0.096
-0.433	-0.734	-0.3	0.584	-0.067	-0.517	0.236	0.007	0.13	0.022	0.061	0.087
-0.437	-0.718	-0.281	0.577	-0.078	-0.499	0.233	0	0.121	0.015	0.052	0.079
-0.445	-0.734	-0.288	0.589	-0.079	-0.51	0.243	0.002	0.123	0.017	0.053	0.082
-0.449	-0.738	-0.289	0.593	-0.08	-0.513	0.251	0	0.123	0.018	0.054	0.081
-0.449	-0.738	-0.289	0.593	-0.08	-0.513	0.248	-0.004	0.121	0.015	0.051	0.08
-0.45	-0.729	-0.279	0.59	-0.086	-0.504	0.248	-0.009	0.12	0.011	0.051	0.08
-0.454	-0.728	-0.275	0.591	-0.089	-0.501	0.249	-0.012	0.119	0.011	0.051	0.081
-0.459	-0.734	-0.276	0.596	-0.091	-0.504	0.254	-0.011	0.119	0.009	0.05	0.081
-0.461	-0.73	-0.269	0.595	-0.096	-0.499	0.251	-0.018	0.113	0.005	0.046	0.077
-0.458	-0.723	-0.265	0.59	-0.097	-0.493	0.254	-0.025	0.111	0.004	0.045	0.077
-0.46	-0.722	-0.263	0.591	-0.099	-0.492	0.26	-0.029	0.107	-0.002	0.042	0.074
-0.466	-0.727	-0.261	0.596	-0.102	-0.493	0.258	-0.037	0.099	-0.011	0.034	0.068
-0.472	-0.731	-0.259	0.602	-0.107	-0.494	0.264	-0.043	0.097	-0.013	0.032	0.065
-0.479	-0.733	-0.254	0.606	-0.113	-0.493	0.272	-0.044	0.094	-0.015	0.029	0.063
-0.485	-0.734	-0.248	0.609	-0.118	-0.491	0.275	-0.051	0.09	-0.018	0.026	0.061
-0.483	-0.731	-0.247	0.607	-0.118	-0.488	0.274	-0.057	0.09	-0.018	0.027	0.061
-0.474	-0.726	-0.251	0.6	-0.112	-0.488	0.275	-0.054	0.089	-0.016	0.028	0.062
-0.473	-0.726	-0.253	0.6	-0.111	-0.489	0.276	-0.062	0.086	-0.014	0.029	0.065
-0.478	-0.726	-0.247	0.602	-0.116	-0.486	0.28	-0.059	0.09	-0.011	0.029	0.065
-0.483	-0.729	-0.245	0.606	-0.119	-0.487	0.288	-0.061	0.086	-0.015	0.026	0.061
-0.485	-0.73	-0.244	0.608	-0.12	-0.487	0.29	-0.07	0.082	-0.016	0.025	0.061
-0.487	-0.729	-0.241	0.608	-0.123	-0.485	0.29	-0.067	0.084	-0.015	0.026	0.063
-0.484	-0.725	-0.241	0.604	-0.121	-0.482	0.282	-0.074	0.082	-0.016	0.028	0.066
-0.477	-0.715	-0.237	0.596	-0.12	-0.476	0.281	-0.076	0.082	-0.013	0.029	0.066
-0.48	-0.716	-0.236	0.598	-0.122	-0.475	0.282	-0.073	0.082	-0.015	0.028	0.065
-0.479	-0.72	-0.24	0.6	-0.12	-0.479	0.269	-0.08	0.079	-0.018	0.026	0.063
-0.475	-0.715	-0.238	0.595	-0.118	-0.476	0.258	-0.086	0.072	-0.021	0.025	0.062
-0.472	-0.706	-0.234	0.589	-0.119	-0.469	0.245	-0.085	0.079	-0.015	0.032	0.069
-0.468	-0.698	-0.23	0.583	-0.119	-0.464	0.233	-0.086	0.077	-0.013	0.033	0.07
-0.458	-0.693	-0.235	0.575	-0.112	-0.464	0.219	-0.092	0.071	-0.02	0.029	0.069
-0.457	-0.696	-0.239	0.577	-0.108	-0.468	0.199	-0.094	0.073	-0.018	0.032	0.071
-0.458	-0.693	-0.235	0.575	-0.112	-0.464	0.191	-0.097	0.072	-0.018	0.034	0.073
-0.444	-0.685	-0.241	0.564	-0.102	-0.463	0.184	-0.099	0.07	-0.016	0.035	0.074
-0.443	-0.685	-0.242	0.564	-0.101	-0.464	0.172	-0.102	0.07	-0.015	0.036	0.074
-0.447	-0.692	-0.244	0.569	-0.101	-0.468	0.157	-0.103	0.065	-0.018	0.033	0.072
-0.448	-0.702	-0.255	0.575	-0.097	-0.477	0.138	-0.11	0.059	-0.019	0.031	0.071
-0.441	-0.705	-0.265	0.573	-0.088	-0.484	0.122	-0.11	0.056	-0.021	0.031	0.072
-0.437	-0.708	-0.271	0.572	-0.083	-0.489	0.113	-0.103	0.058	-0.018	0.034	0.073
-0.439	-0.71	-0.271	0.574	-0.084	-0.489	0.102	-0.105	0.059	-0.016	0.034	0.074
-0.432	-0.713	-0.281	0.572	-0.076	-0.496	0.086	-0.104	0.054	-0.018	0.033	0.075
-0.432	-0.724	-0.291	0.578	-0.07	-0.507	0.082	-0.103	0.053	-0.018	0.032	0.073
-0.433	-0.733	-0.299	0.583	-0.067	-0.515	0.086	-0.096	0.056	-0.015	0.032	0.073
-0.433	-0.743	-0.309	0.588	-0.062	-0.525	0.085	-0.088	0.057	-0.014	0.032	0.075
-0.433	-0.746	-0.312	0.59	-0.06	-0.529	0.088	-0.086	0.058	-0.017	0.03	0.074
-0.43	-0.745	-0.315	0.587	-0.057	-0.529	0.088	-0.085	0.056	-0.018	0.029	0.072
-0.429	-0.75	-0.321	0.59	-0.054	-0.535	0.088	-0.082	0.059	-0.017	0.031	0.072
-0.427	-0.753	-0.326	0.59	-0.051	-0.539	0.088	-0.076	0.062	-0.017	0.03	0.073
-0.425	-0.753	-0.329	0.589	-0.048	-0.54	0.087	-0.079	0.055	-0.021	0.026	0.07
-0.425	-0.752	-0.328	0.589	-0.049	-0.54	0.085	-0.076	0.058	-0.02	0.029	0.07
-0.423	-0.754	-0.332	0.589	-0.045	-0.543	0.087	-0.076	0.056	-0.022	0.027	0.069
-0.42	-0.752	-0.332	0.586	-0.044	-0.541	0.087	-0.077	0.053	-0.025	0.025	0.067
-0.417	-0.748	-0.331	0.582	-0.043	-0.539	0.085	-0.074	0.056	-0.023	0.025	0.068
-0.429	-0.754	-0.325	0.591	-0.052	-0.539	0.091	-0.072	0.057	-0.021	0.025	0.068
-0.441	-0.755	-0.315	0.598	-0.064	-0.534	0.098	-0.065	0.065	-0.016	0.032	0.073
-0.427	-0.75	-0.323	0.589	-0.052	-0.536	0.097	-0.066	0.062	-0.015	0.032	0.072
-0.418	-0.751	-0.333	0.585	-0.043	-0.542	0.088	-0.065	0.06	-0.017	0.029	0.07
-0.419	-0.755	-0.337	0.587	-0.042	-0.546	0.091	-0.061	0.059	-0.018	0.03	0.07
-0.417	-0.759	-0.342	0.588	-0.038	-0.55	0.097	-0.058	0.062	-0.012	0.032	0.073
-0.417	-0.76	-0.343	0.589	-0.037	-0.551	0.093	-0.055	0.066	-0.008	0.034	0.075
-0.413	-0.756	-0.344	0.584	-0.035	-0.549	0.093	-0.052	0.066	-0.006	0.035	0.075
-0.406	-0.753	-0.347	0.58	-0.029	-0.55	0.095	-0.052	0.065	-0.005	0.035	0.076
-0.407	-0.759	-0.353	0.583	-0.027	-0.556	0.095	-0.051	0.064	-0.006	0.035	0.075
-0.407	-0.76	-0.353	0.584	-0.026	-0.556	0.099	-0.051	0.065	-0.006	0.036	0.076
-0.41	-0.766	-0.356	0.588	-0.027	-0.561	0.101	-0.052	0.063	-0.009	0.033	0.072
-0.408	-0.77	-0.362	0.589	-0.023	-0.566	0.097	-0.054	0.06	-0.011	0.029	0.069
-0.402	-0.763	-0.362	0.583	-0.02	-0.563	0.095	-0.058	0.058	-0.015	0.028	0.067
-0.406	-0.766	-0.36	0.586	-0.023	-0.563	0.092	-0.058	0.057	-0.017	0.026	0.065
-0.414	-0.769	-0.355	0.592	-0.029	-0.562	0.091	-0.064	0.055	-0.019	0.025	0.064
-0.415	-0.767	-0.352	0.592	-0.032	-0.56	0.092	-0.063	0.054	-0.022	0.025	0.062
-0.416	-0.769	-0.352	0.593	-0.033	-0.56	0.092	-0.065	0.052	-0.025	0.022	0.06
-0.423	-0.774	-0.351	0.599	-0.036	-0.562	0.086	-0.071	0.046	-0.03	0.017	0.056
-0.422	-0.777	-0.355	0.6	-0.034	-0.566	0.085	-0.073	0.045	-0.033	0.013	0.053
-0.418	-0.772	-0.353	0.595	-0.033	-0.562	0.088	-0.073	0.045	-0.032	0.016	0.054
-0.427	-0.774	-0.346	0.6	-0.041	-0.56	0.095	-0.07	0.046	-0.032	0.016	0.056
-0.43	-0.777	-0.347	0.603	-0.042	-0.561	0.092	-0.072	0.044	-0.032	0.013	0.054
-0.424	-0.772	-0.348	0.599	-0.038	-0.56	0.087	-0.073	0.043	-0.032	0.017	0.054
-0.429	-0.775	-0.346	0.602	-0.042	-0.56	0.092	-0.07	0.046	-0.031	0.017	0.054
-0.426	-0.77	-0.344	0.598	-0.041	-0.557	0.095	-0.07	0.05	-0.026	0.02	0.055
-0.426	-0.775	-0.349	0.601	-0.039	-0.562	0.095	-0.068	0.05	-0.026	0.022	0.056
-0.434	-0.786	-0.352	0.61	-0.042	-0.569	0.102	-0.07	0.048	-0.029	0.019	0.054
-0.432	-0.783	-0.35	0.608	-0.041	-0.567	0.098	-0.073	0.046	-0.028	0.02	0.057
-0.432	-0.785	-0.352	0.609	-0.04	-0.569	0.096	-0.069	0.049	-0.025	0.021	0.058
-0.434	-0.787	-0.353	0.61	-0.041	-0.57	0.103	-0.065	0.051	-0.024	0.023	0.059
-0.435	-0.79	-0.354	0.613	-0.041	-0.573	0.103	-0.068	0.049	-0.026	0.023	0.059
-0.437	-0.786	-0.349	0.612	-0.044	-0.568	0.101	-0.07	0.051	-0.026	0.022	0.057
-0.438	-0.784	-0.347	0.611	-0.045	-0.566	0.1	-0.07	0.051	-0.024	0.022	0.058
-0.436	-0.788	-0.351	0.612	-0.043	-0.57	0.103	-0.069	0.049	-0.026	0.02	0.059
-0.435	-0.783	-0.348	0.609	-0.043	-0.566	0.099	-0.071	0.051	-0.028	0.021	0.058
-0.431	-0.773	-0.342	0.602	-0.045	-0.557	0.096	-0.076	0.049	-0.031	0.019	0.056
-0.431	-0.776	-0.345	0.604	-0.043	-0.56	0.096	-0.077	0.044	-0.035	0.017	0.053
-0.435	-0.786	-0.351	0.611	-0.042	-0.569	0.091	-0.079	0.043	-0.036	0.015	0.051
-0.436	-0.782	-0.345	0.609	-0.046	-0.564	0.097	-0.079	0.043	-0.037	0.013	0.051
-0.431	-0.776	-0.344	0.603	-0.043	-0.56	0.098	-0.078	0.045	-0.035	0.015	0.053
-0.429	-0.783	-0.354	0.606	-0.037	-0.569	0.096	-0.078	0.048	-0.034	0.015	0.053
-0.431	-0.789	-0.357	0.61	-0.037	-0.573	0.096	-0.079	0.043	-0.038	0.011	0.05
-0.433	-0.786	-0.352	0.61	-0.041	-0.569	0.094	-0.082	0.04	-0.042	0.012	0.049
-0.43	-0.788	-0.357	0.609	-0.036	-0.572	0.093	-0.084	0.038	-0.041	0.011	0.046
-0.425	-0.785	-0.36	0.605	-0.033	-0.573	0.096	-0.081	0.042	-0.036	0.013	0.049
-0.428	-0.785	-0.357	0.607	-0.035	-0.571	0.097	-0.081	0.042	-0.035	0.015	0.05
-0.428	-0.788	-0.359	0.608	-0.035	-0.574	0.096	-0.083	0.038	-0.036	0.013	0.047
-0.425	-0.788	-0.363	0.607	-0.03	-0.576	0.102	-0.074	0.048	-0.03	0.017	0.051
-0.423	-0.783	-0.359	0.603	-0.032	-0.571	0.105	-0.076	0.047	-0.03	0.019	0.051
-0.425	-0.779	-0.354	0.602	-0.035	-0.566	0.101	-0.081	0.043	-0.031	0.017	0.049
-0.43	-0.79	-0.36	0.61	-0.035	-0.575	0.101	-0.08	0.043	-0.033	0.015	0.05
-0.428	-0.789	-0.361	0.609	-0.033	-0.575	0.101	-0.083	0.039	-0.035	0.013	0.047
-0.428	-0.785	-0.357	0.606	-0.035	-0.571	0.098	-0.083	0.04	-0.036	0.012	0.046
-0.429	-0.784	-0.354	0.607	-0.037	-0.569	0.1	-0.087	0.035	-0.041	0.01	0.046
-0.429	-0.78	-0.351	0.604	-0.039	-0.566	0.098	-0.087	0.034	-0.042	0.009	0.045
-0.431	-0.778	-0.346	0.605	-0.043	-0.562	0.099	-0.086	0.035	-0.045	0.007	0.044
-0.433	-0.771	-0.338	0.602	-0.048	-0.554	0.097	-0.088	0.034	-0.046	0.009	0.044
-0.437	-0.772	-0.336	0.605	-0.051	-0.553	0.093	-0.089	0.033	-0.047	0.007	0.042
-0.441	-0.772	-0.332	0.607	-0.054	-0.552	0.098	-0.088	0.03	-0.05	0.006	0.041
-0.441	-0.77	-0.33	0.606	-0.056	-0.55	0.1	-0.091	0.03	-0.052	0.005	0.04
-0.439	-0.771	-0.333	0.605	-0.053	-0.552	0.097	-0.092	0.029	-0.051	0.004	0.04
-0.443	-0.777	-0.335	0.61	-0.054	-0.555	0.096	-0.088	0.03	-0.051	0.004	0.04
-0.443	-0.782	-0.34	0.613	-0.052	-0.56	0.098	-0.092	0.029	-0.051	0.004	0.039
-0.445	-0.778	-0.334	0.611	-0.056	-0.556	0.102	-0.088	0.031	-0.048	0.006	0.041
-0.449	-0.78	-0.332	0.614	-0.059	-0.555	0.102	-0.086	0.035	-0.044	0.009	0.042
-0.462	-0.781	-0.32	0.622	-0.071	-0.55	0.105	-0.081	0.041	-0.038	0.014	0.049
-0.467	-0.778	-0.311	0.622	-0.078	-0.544	0.113	-0.076	0.043	-0.036	0.018	0.053
-0.453	-0.779	-0.326	0.616	-0.064	-0.552	0.105	-0.081	0.042	-0.036	0.015	0.049
-0.453	-0.781	-0.328	0.617	-0.062	-0.554	0.11	-0.076	0.044	-0.036	0.015	0.05
-0.459	-0.783	-0.325	0.621	-0.067	-0.554	0.112	-0.077	0.043	-0.035	0.016	0.05
-0.458	-0.781	-0.324	0.619	-0.067	-0.552	0.107	-0.077	0.044	-0.034	0.017	0.051
-0.449	-0.775	-0.326	0.612	-0.062	-0.55	0.111	-0.074	0.046	-0.03	0.018	0.053
-0.449	-0.775	-0.326	0.612	-0.061	-0.55	0.108	-0.075	0.043	-0.032	0.018	0.053
-0.45	-0.775	-0.325	0.613	-0.063	-0.549	0.107	-0.079	0.042	-0.034	0.018	0.054
-0.452	-0.773	-0.322	0.613	-0.065	-0.547	0.103	-0.083	0.041	-0.035	0.017	0.052
-0.455	-0.772	-0.318	0.614	-0.069	-0.545	0.102	-0.08	0.041	-0.039	0.015	0.05
-0.45	-0.77	-0.321	0.61	-0.065	-0.545	0.101	-0.082	0.039	-0.041	0.015	0.049
-0.443	-0.765	-0.322	0.604	-0.06	-0.543	0.101	-0.083	0.038	-0.042	0.014	0.05
-0.437	-0.764	-0.328	0.601	-0.055	-0.546	0.101	-0.083	0.037	-0.043	0.012	0.048
-0.436	-0.766	-0.33	0.601	-0.054	-0.547	0.096	-0.085	0.037	-0.043	0.013	0.047
-0.445	-0.767	-0.323	0.606	-0.061	-0.545	0.099	-0.082	0.04	-0.042	0.013	0.049
-0.451	-0.77	-0.319	0.611	-0.066	-0.544	0.102	-0.081	0.04	-0.041	0.014	0.051
-0.446	-0.765	-0.319	0.605	-0.063	-0.542	0.102	-0.081	0.044	-0.037	0.018	0.053
-0.454	-0.776	-0.323	0.615	-0.066	-0.549	0.101	-0.082	0.041	-0.04	0.015	0.049
-0.448	-0.777	-0.329	0.613	-0.059	-0.552	0.102	-0.082	0.04	-0.039	0.014	0.051
-0.433	-0.763	-0.331	0.599	-0.051	-0.547	0.103	-0.077	0.044	-0.033	0.021	0.056
-0.444	-0.773	-0.329	0.608	-0.058	-0.551	0.103	-0.076	0.045	-0.032	0.021	0.055
-0.445	-0.782	-0.337	0.613	-0.054	-0.559	0.106	-0.074	0.047	-0.03	0.021	0.057
-0.443	-0.786	-0.343	0.614	-0.05	-0.564	0.106	-0.074	0.046	-0.03	0.021	0.056
-0.443	-0.781	-0.339	0.612	-0.052	-0.56	0.104	-0.076	0.043	-0.033	0.018	0.053
-0.44	-0.778	-0.338	0.609	-0.051	-0.557	0.104	-0.077	0.042	-0.035	0.018	0.053
-0.434	-0.784	-0.35	0.609	-0.042	-0.567	0.101	-0.079	0.041	-0.035	0.018	0.052
-0.427	-0.78	-0.352	0.604	-0.037	-0.566	0.1	-0.082	0.04	-0.037	0.016	0.05
-0.432	-0.776	-0.344	0.604	-0.044	-0.56	0.101	-0.084	0.038	-0.04	0.018	0.05
-0.429	-0.773	-0.344	0.601	-0.043	-0.558	0.1	-0.082	0.039	-0.038	0.017	0.051
-0.433	-0.775	-0.342	0.604	-0.045	-0.558	0.093	-0.085	0.038	-0.041	0.017	0.051
-0.438	-0.778	-0.34	0.608	-0.049	-0.559	0.091	-0.088	0.035	-0.044	0.015	0.048
-0.43	-0.771	-0.342	0.601	-0.044	-0.556	0.093	-0.089	0.035	-0.044	0.013	0.046
-0.428	-0.772	-0.344	0.6	-0.042	-0.558	0.09	-0.09	0.035	-0.046	0.014	0.046
-0.423	-0.771	-0.348	0.597	-0.037	-0.559	0.09	-0.09	0.034	-0.047	0.013	0.045
-0.417	-0.764	-0.347	0.591	-0.035	-0.555	0.088	-0.09	0.034	-0.048	0.014	0.046
-0.422	-0.767	-0.344	0.595	-0.039	-0.555	0.089	-0.09	0.034	-0.045	0.015	0.047
-0.427	-0.771	-0.344	0.599	-0.042	-0.557	0.089	-0.09	0.032	-0.048	0.014	0.045
-0.428	-0.77	-0.343	0.599	-0.043	-0.556	0.086	-0.091	0.033	-0.048	0.013	0.045
-0.432	-0.773	-0.341	0.603	-0.046	-0.557	0.09	-0.092	0.033	-0.046	0.015	0.046
-0.435	-0.777	-0.342	0.606	-0.047	-0.559	0.09	-0.092	0.033	-0.046	0.015	0.046
-0.435	-0.781	-0.345	0.608	-0.045	-0.563	0.09	-0.092	0.035	-0.043	0.015	0.049
-0.439	-0.777	-0.339	0.608	-0.051	-0.558	0.095	-0.091	0.035	-0.043	0.015	0.049
-0.446	-0.774	-0.329	0.61	-0.059	-0.551	0.096	-0.092	0.033	-0.044	0.014	0.046
-0.447	-0.774	-0.328	0.61	-0.059	-0.551	0.093	-0.095	0.031	-0.046	0.013	0.044
-0.447	-0.773	-0.327	0.61	-0.06	-0.55	0.097	-0.096	0.03	-0.05	0.012	0.042
-0.451	-0.778	-0.328	0.614	-0.061	-0.553	0.098	-0.1	0.03	-0.05	0.013	0.043
-0.449	-0.775	-0.326	0.612	-0.062	-0.55	0.095	-0.098	0.03	-0.047	0.011	0.043
-0.452	-0.775	-0.323	0.613	-0.065	-0.549	0.093	-0.099	0.029	-0.05	0.011	0.042
-0.452	-0.774	-0.324	0.613	-0.064	-0.549	0.092	-0.101	0.027	-0.053	0.012	0.042
-0.454	-0.776	-0.323	0.615	-0.066	-0.549	0.089	-0.102	0.025	-0.056	0.009	0.039
-0.452	-0.775	-0.324	0.613	-0.064	-0.549	0.088	-0.103	0.024	-0.058	0.009	0.038
-0.447	-0.769	-0.323	0.608	-0.062	-0.546	0.089	-0.101	0.025	-0.057	0.009	0.04
-0.453	-0.769	-0.316	0.611	-0.069	-0.542	0.088	-0.102	0.026	-0.058	0.009	0.04
-0.454	-0.765	-0.312	0.61	-0.071	-0.538	0.088	-0.102	0.025	-0.059	0.009	0.04
-0.458	-0.769	-0.312	0.614	-0.072	-0.54	0.087	-0.104	0.025	-0.06	0.008	0.038
-0.46	-0.768	-0.308	0.614	-0.076	-0.538	0.09	-0.102	0.024	-0.059	0.01	0.038
-0.463	-0.768	-0.306	0.616	-0.079	-0.537	0.09	-0.103	0.025	-0.058	0.01	0.039
-0.464	-0.773	-0.31	0.619	-0.077	-0.541	0.089	-0.101	0.027	-0.057	0.01	0.039
-0.46	-0.777	-0.318	0.618	-0.071	-0.547	0.09	-0.099	0.025	-0.058	0.012	0.037
-0.463	-0.778	-0.316	0.621	-0.073	-0.547	0.092	-0.1	0.026	-0.053	0.013	0.041
-0.463	-0.778	-0.316	0.621	-0.073	-0.546	0.095	-0.096	0.029	-0.052	0.013	0.042
-0.462	-0.786	-0.324	0.624	-0.069	-0.554	0.094	-0.098	0.026	-0.055	0.011	0.038
-0.461	-0.784	-0.324	0.623	-0.069	-0.554	0.1	-0.094	0.029	-0.049	0.016	0.043
-0.457	-0.776	-0.32	0.617	-0.069	-0.547	0.098	-0.092	0.032	-0.048	0.021	0.045
-0.452	-0.773	-0.322	0.613	-0.065	-0.547	0.096	-0.093	0.03	-0.05	0.018	0.045
-0.454	-0.778	-0.325	0.616	-0.065	-0.551	0.1	-0.092	0.03	-0.048	0.018	0.044
-0.46	-0.778	-0.319	0.619	-0.07	-0.548	0.1	-0.091	0.033	-0.048	0.02	0.044
-0.456	-0.772	-0.317	0.614	-0.07	-0.544	0.1	-0.091	0.03	-0.049	0.019	0.044
-0.454	-0.77	-0.316	0.612	-0.069	-0.543	0.094	-0.096	0.032	-0.051	0.021	0.048
-0.454	-0.769	-0.316	0.611	-0.07	-0.542	0.093	-0.097	0.033	-0.051	0.02	0.045
-0.451	-0.765	-0.315	0.608	-0.068	-0.54	0.093	-0.102	0.027	-0.056	0.018	0.043
-0.454	-0.764	-0.311	0.609	-0.071	-0.537	0.092	-0.102	0.029	-0.056	0.018	0.044
-0.456	-0.767	-0.31	0.612	-0.072	-0.538	0.095	-0.099	0.033	-0.055	0.021	0.044
-0.451	-0.76	-0.309	0.605	-0.07	-0.534	0.096	-0.1	0.032	-0.055	0.022	0.047
-0.453	-0.757	-0.304	0.605	-0.074	-0.53	0.095	-0.1	0.031	-0.055	0.021	0.046
-0.454	-0.753	-0.299	0.604	-0.077	-0.525	0.095	-0.099	0.03	-0.054	0.022	0.048
-0.453	-0.757	-0.304	0.605	-0.074	-0.53	0.096	-0.098	0.032	-0.052	0.021	0.048
-0.453	-0.762	-0.31	0.607	-0.071	-0.535	0.097	-0.098	0.033	-0.051	0.021	0.048
-0.446	-0.752	-0.307	0.599	-0.07	-0.529	0.099	-0.095	0.036	-0.048	0.025	0.052
-0.444	-0.748	-0.304	0.595	-0.07	-0.525	0.102	-0.091	0.04	-0.043	0.027	0.055
-0.443	-0.748	-0.305	0.595	-0.069	-0.526	0.103	-0.092	0.041	-0.04	0.031	0.057
-0.447	-0.752	-0.305	0.599	-0.071	-0.528	0.102	-0.093	0.04	-0.041	0.034	0.058
-0.45	-0.753	-0.303	0.601	-0.073	-0.528	0.102	-0.095	0.039	-0.04	0.035	0.058
-0.449	-0.753	-0.305	0.601	-0.071	-0.529	0.104	-0.094	0.04	-0.04	0.034	0.058
-0.449	-0.751	-0.301	0.6	-0.073	-0.526	0.102	-0.094	0.04	-0.04	0.032	0.054
-0.444	-0.744	-0.3	0.594	-0.072	-0.521	0.105	-0.092	0.043	-0.037	0.033	0.056
-0.446	-0.742	-0.296	0.593	-0.074	-0.518	0.109	-0.088	0.047	-0.036	0.035	0.057
-0.449	-0.735	-0.286	0.592	-0.081	-0.51	0.108	-0.086	0.049	-0.033	0.038	0.056
-0.453	-0.727	-0.274	0.589	-0.089	-0.5	0.11	-0.086	0.053	-0.034	0.038	0.056
-0.463	-0.722	-0.259	0.592	-0.102	-0.49	0.114	-0.083	0.059	-0.032	0.037	0.053
-0.476	-0.718	-0.242	0.597	-0.117	-0.479	0.123	-0.073	0.069	-0.025	0.038	0.052
-0.489	-0.714	-0.225	0.602	-0.133	-0.469	0.132	-0.059	0.085	-0.018	0.043	0.051
-0.502	-0.709	-0.206	0.605	-0.148	-0.457	0.139	-0.043	0.102	-0.005	0.047	0.051
-0.507	-0.7	-0.193	0.604	-0.158	-0.446	0.154	-0.01	0.134	0.015	0.054	0.051
-0.506	-0.699	-0.193	0.603	-0.157	-0.446	0.167	0.028	0.166	0.038	0.066	0.056
-0.51	-0.699	-0.188	0.605	-0.162	-0.443	0.178	0.059	0.196	0.06	0.079	0.061
-0.51	-0.696	-0.185	0.603	-0.163	-0.441	0.197	0.102	0.237	0.093	0.101	0.071
-0.51	-0.693	-0.183	0.602	-0.163	-0.438	0.212	0.149	0.278	0.127	0.12	0.084
-0.515	-0.686	-0.172	0.601	-0.172	-0.429	0.228	0.185	0.313	0.153	0.133	0.087
-0.52	-0.673	-0.153	0.597	-0.183	-0.413	0.237	0.217	0.35	0.188	0.156	0.102
-0.525	-0.648	-0.123	0.586	-0.201	-0.385	0.245	0.246	0.389	0.226	0.189	0.127
-0.519	-0.632	-0.114	0.576	-0.203	-0.373	0.248	0.259	0.412	0.258	0.221	0.152
-0.505	-0.616	-0.111	0.56	-0.198	-0.363	0.234	0.26	0.43	0.292	0.264	0.195
-0.499	-0.597	-0.097	0.548	-0.201	-0.347	0.218	0.248	0.433	0.315	0.297	0.228
-0.484	-0.589	-0.103	0.536	-0.191	-0.346	0.197	0.216	0.414	0.322	0.327	0.264
-0.464	-0.574	-0.11	0.518	-0.177	-0.342	0.173	0.194	0.407	0.344	0.374	0.316
-0.45	-0.555	-0.105	0.502	-0.172	-0.33	0.16	0.187	0.418	0.378	0.421	0.366
-0.424	-0.539	-0.115	0.481	-0.155	-0.327	0.146	0.182	0.436	0.419	0.482	0.429
-0.4	-0.524	-0.124	0.462	-0.138	-0.325	0.127	0.176	0.452	0.469	0.557	0.508
-0.385	-0.51	-0.126	0.447	-0.13	-0.318	0.106	0.174	0.47	0.517	0.634	0.591
-0.366	-0.485	-0.119	0.425	-0.123	-0.301	0.084	0.168	0.483	0.564	0.709	0.668
-0.333	-0.449	-0.116	0.391	-0.108	-0.282	0.054	0.154	0.499	0.625	0.805	0.77
-0.272	-0.425	-0.154	0.348	-0.059	-0.289	0.015	0.146	0.536	0.726	0.951	0.925
-0.212	-0.404	-0.192	0.307	-0.01	-0.297	-0.022	0.137	0.567	0.819	1.089	1.073
-0.159	-0.371	-0.212	0.265	0.026	-0.291	-0.051	0.14	0.603	0.908	1.214	1.207
-0.115	-0.363	-0.248	0.238	0.067	-0.305	-0.082	0.134	0.622	0.974	1.316	1.319
-0.073	-0.358	-0.285	0.216	0.105	-0.322	-0.103	0.132	0.634	1.026	1.397	1.403
-0.024	-0.336	-0.311	0.179	0.144	-0.324	-0.121	0.136	0.663	1.098	1.492	1.502
0.019	-0.324	-0.342	0.152	0.18	-0.333	-0.155	0.116	0.663	1.145	1.57	1.587
0.069	-0.311	-0.38	0.121	0.225	-0.345	-0.192	0.099	0.653	1.176	1.629	1.654
0.121	-0.295	-0.416	0.086	0.269	-0.355	-0.235	0.071	0.623	1.179	1.661	1.704
0.167	-0.286	-0.453	0.059	0.309	-0.369	-0.272	0.042	0.581	1.163	1.673	1.732
0.182	-0.283	-0.466	0.05	0.324	-0.374	-0.289	0.033	0.554	1.146	1.67	1.734
0.194	-0.288	-0.482	0.047	0.338	-0.386	-0.301	0.035	0.537	1.125	1.653	1.72
0.202	-0.29	-0.492	0.044	0.347	-0.391	-0.31	0.021	0.504	1.078	1.607	1.683
0.182	-0.277	-0.46	0.047	0.321	-0.368	-0.312	-0.002	0.458	1.011	1.542	1.627
0.163	-0.271	-0.433	0.054	0.298	-0.352	-0.306	-0.002	0.433	0.953	1.476	1.571
0.129	-0.262	-0.39	0.067	0.259	-0.326	-0.284	0.001	0.397	0.85	1.354	1.46
0.101	-0.239	-0.341	0.069	0.221	-0.29	-0.284	-0.036	0.311	0.705	1.206	1.332
0.082	-0.234	-0.316	0.075	0.199	-0.275	-0.292	-0.084	0.218	0.561	1.06	1.212
0.03	-0.257	-0.287	0.113	0.159	-0.272	-0.26	-0.111	0.128	0.384	0.861	1.032
-0.013	-0.304	-0.291	0.159	0.139	-0.297	-0.235	-0.15	0.011	0.198	0.656	0.85
-0.05	-0.358	-0.309	0.203	0.13	-0.334	-0.21	-0.164	-0.072	0.056	0.484	0.69
-0.072	-0.425	-0.352	0.249	0.14	-0.389	-0.171	-0.155	-0.13	-0.08	0.306	0.519
-0.098	-0.494	-0.397	0.296	0.149	-0.446	-0.122	-0.133	-0.174	-0.206	0.135	0.346
-0.161	-0.571	-0.41	0.366	0.124	-0.49	-0.054	-0.105	-0.212	-0.335	-0.049	0.161
-0.235	-0.654	-0.419	0.444	0.092	-0.536	0.003	-0.119	-0.3	-0.521	-0.288	-0.071
-0.294	-0.714	-0.42	0.503	0.063	-0.567	0.038	-0.142	-0.395	-0.712	-0.53	-0.302
-0.342	-0.778	-0.436	0.56	0.047	-0.607	0.073	-0.145	-0.45	-0.836	-0.696	-0.462
-0.412	-0.852	-0.44	0.631	0.014	-0.645	0.137	-0.111	-0.472	-0.931	-0.838	-0.61
-0.477	-0.922	-0.445	0.7	-0.017	-0.683	0.206	-0.063	-0.482	-1.015	-0.968	-0.747
-0.555	-0.972	-0.416	0.763	-0.069	-0.694	0.266	-0.028	-0.478	-1.054	-1.034	-0.816
-0.641	-0.981	-0.339	0.811	-0.151	-0.659	0.319	-0.006	-0.467	-1.075	-1.073	-0.856
-0.701	-0.988	-0.286	0.844	-0.207	-0.636	0.344	-0.026	-0.486	-1.117	-1.13	-0.912
-0.733	-1.008	-0.275	0.871	-0.229	-0.641	0.352	-0.08	-0.526	-1.155	-1.171	-0.953
-0.741	-1.027	-0.286	0.883	-0.228	-0.656	0.352	-0.121	-0.561	-1.169	-1.177	-0.961
-0.737	-1.059	-0.323	0.897	-0.207	-0.691	0.357	-0.136	-0.58	-1.167	-1.169	-0.955
-0.734	-1.089	-0.355	0.911	-0.19	-0.722	0.382	-0.101	-0.555	-1.131	-1.139	-0.939
-0.742	-1.093	-0.351	0.917	-0.196	-0.722	0.417	-0.017	-0.48	-1.061	-1.087	-0.909
-0.73	-1.101	-0.37	0.915	-0.179	-0.736	0.45	0.054	-0.402	-0.976	-1.014	-0.859
-0.724	-1.101	-0.378	0.912	-0.173	-0.739	0.473	0.094	-0.338	-0.892	-0.932	-0.797
-0.724	-1.074	-0.35	0.898	-0.187	-0.712	0.496	0.135	-0.276	-0.814	-0.857	-0.74
-0.715	-1.04	-0.325	0.876	-0.195	-0.682	0.51	0.166	-0.22	-0.746	-0.791	-0.688
-0.71	-1.006	-0.296	0.858	-0.207	-0.651	0.523	0.205	-0.153	-0.672	-0.724	-0.636
-0.711	-0.976	-0.265	0.843	-0.223	-0.62	0.527	0.222	-0.118	-0.622	-0.673	-0.596
-0.705	-0.94	-0.235	0.822	-0.234	-0.588	0.53	0.232	-0.086	-0.571	-0.617	-0.548
-0.695	-0.906	-0.211	0.8	-0.242	-0.558	0.55	0.272	-0.033	-0.499	-0.544	-0.489
-0.687	-0.891	-0.204	0.789	-0.241	-0.547	0.558	0.304	0.004	-0.445	-0.487	-0.441
-0.68	-0.888	-0.207	0.784	-0.236	-0.547	0.546	0.319	0.015	-0.404	-0.438	-0.394
-0.677	-0.889	-0.212	0.783	-0.233	-0.55	0.516	0.278	-0.024	-0.397	-0.41	-0.364
-0.656	-0.887	-0.231	0.772	-0.213	-0.559	0.484	0.237	-0.06	-0.396	-0.394	-0.346
-0.644	-0.878	-0.234	0.761	-0.205	-0.555	0.47	0.217	-0.072	-0.382	-0.369	-0.324
-0.643	-0.872	-0.229	0.757	-0.207	-0.549	0.472	0.195	-0.081	-0.369	-0.348	-0.302
-0.631	-0.866	-0.234	0.749	-0.199	-0.549	0.469	0.191	-0.074	-0.345	-0.322	-0.277
-0.625	-0.864	-0.239	0.745	-0.193	-0.551	0.463	0.196	-0.061	-0.322	-0.297	-0.258
-0.617	-0.865	-0.248	0.741	-0.184	-0.556	0.467	0.223	-0.029	-0.288	-0.27	-0.237
-0.603	-0.86	-0.257	0.731	-0.172	-0.558	0.462	0.248	0.009	-0.254	-0.239	-0.213
-0.59	-0.85	-0.261	0.72	-0.165	-0.554	0.453	0.259	0.037	-0.223	-0.211	-0.192
-0.581	-0.841	-0.26	0.711	-0.161	-0.55	0.45	0.272	0.07	-0.188	-0.18	-0.168
-0.576	-0.837	-0.261	0.706	-0.157	-0.548	0.441	0.273	0.096	-0.158	-0.153	-0.146
-0.566	-0.829	-0.264	0.697	-0.151	-0.546	0.426	0.256	0.11	-0.135	-0.131	-0.13
-0.557	-0.821	-0.264	0.689	-0.146	-0.542	0.4	0.216	0.109	-0.121	-0.114	-0.115
-0.551	-0.814	-0.262	0.682	-0.145	-0.537	0.366	0.171	0.098	-0.117	-0.105	-0.105
-0.548	-0.799	-0.251	0.673	-0.149	-0.524	0.343	0.131	0.089	-0.112	-0.096	-0.097
-0.544	-0.792	-0.248	0.668	-0.148	-0.52	0.322	0.092	0.085	-0.105	-0.085	-0.086
-0.538	-0.786	-0.248	0.662	-0.144	-0.517	0.3	0.057	0.079	-0.102	-0.08	-0.078
-0.531	-0.777	-0.246	0.654	-0.142	-0.511	0.281	0.027	0.071	-0.101	-0.073	-0.073
-0.523	-0.781	-0.258	0.651	-0.133	-0.519	0.263	0.007	0.067	-0.098	-0.068	-0.067
-0.522	-0.775	-0.253	0.648	-0.135	-0.513	0.252	-0.009	0.066	-0.094	-0.064	-0.062
-0.517	-0.763	-0.246	0.639	-0.136	-0.504	0.242	-0.028	0.065	-0.088	-0.058	-0.057
-0.507	-0.76	-0.253	0.633	-0.128	-0.506	0.227	-0.045	0.064	-0.083	-0.051	-0.051
-0.504	-0.762	-0.258	0.633	-0.123	-0.509	0.215	-0.059	0.061	-0.082	-0.047	-0.048
-0.503	-0.764	-0.262	0.633	-0.12	-0.513	0.205	-0.069	0.058	-0.081	-0.045	-0.045
-0.498	-0.759	-0.261	0.628	-0.118	-0.509	0.193	-0.073	0.059	-0.076	-0.042	-0.042
-0.493	-0.761	-0.269	0.627	-0.113	-0.515	0.178	-0.079	0.053	-0.078	-0.042	-0.042
-0.494	-0.769	-0.275	0.631	-0.11	-0.521	0.16	-0.086	0.045	-0.084	-0.044	-0.045
-0.49	-0.771	-0.282	0.63	-0.104	-0.526	0.141	-0.092	0.042	-0.085	-0.043	-0.044
-0.482	-0.772	-0.29	0.627	-0.097	-0.531	0.125	-0.097	0.037	-0.086	-0.043	-0.044
-0.481	-0.773	-0.291	0.627	-0.095	-0.532	0.109	-0.102	0.031	-0.091	-0.046	-0.048
-0.478	-0.777	-0.298	0.627	-0.09	-0.537	0.094	-0.103	0.025	-0.096	-0.049	-0.05
-0.476	-0.778	-0.302	0.627	-0.087	-0.54	0.089	-0.104	0.023	-0.097	-0.05	-0.05
-0.48	-0.785	-0.304	0.633	-0.088	-0.544	0.088	-0.107	0.021	-0.099	-0.051	-0.051
-0.478	-0.793	-0.315	0.635	-0.082	-0.553	0.085	-0.104	0.019	-0.102	-0.052	-0.052
-0.471	-0.792	-0.321	0.631	-0.075	-0.556	0.087	-0.1	0.019	-0.102	-0.053	-0.052
-0.47	-0.792	-0.323	0.631	-0.074	-0.557	0.09	-0.097	0.021	-0.101	-0.051	-0.051
-0.47	-0.799	-0.33	0.634	-0.07	-0.565	0.088	-0.093	0.022	-0.099	-0.051	-0.052
-0.472	-0.814	-0.342	0.642	-0.065	-0.578	0.088	-0.093	0.021	-0.1	-0.052	-0.055
-0.476	-0.822	-0.345	0.649	-0.066	-0.583	0.086	-0.095	0.018	-0.101	-0.054	-0.054
-0.474	-0.82	-0.345	0.647	-0.065	-0.583	0.089	-0.089	0.024	-0.096	-0.052	-0.052
-0.469	-0.82	-0.352	0.644	-0.059	-0.586	0.092	-0.087	0.026	-0.092	-0.049	-0.051
-0.467	-0.821	-0.353	0.643	-0.057	-0.587	0.097	-0.085	0.029	-0.088	-0.047	-0.045
-0.466	-0.819	-0.353	0.642	-0.057	-0.586	0.099	-0.083	0.031	-0.086	-0.046	-0.045
-0.465	-0.819	-0.354	0.642	-0.056	-0.587	0.1	-0.083	0.03	-0.086	-0.044	-0.046
-0.463	-0.819	-0.355	0.64	-0.053	-0.587	0.103	-0.08	0.033	-0.084	-0.042	-0.042
-0.461	-0.817	-0.356	0.638	-0.052	-0.586	0.097	-0.081	0.03	-0.086	-0.043	-0.044
-0.456	-0.815	-0.359	0.635	-0.049	-0.587	0.091	-0.083	0.032	-0.086	-0.044	-0.045
-0.45	-0.811	-0.36	0.63	-0.044	-0.586	0.09	-0.082	0.032	-0.085	-0.045	-0.044
-0.451	-0.812	-0.361	0.631	-0.044	-0.587	0.09	-0.079	0.033	-0.083	-0.042	-0.042
-0.454	-0.811	-0.358	0.632	-0.048	-0.585	0.091	-0.08	0.034	-0.086	-0.042	-0.04
-0.453	-0.81	-0.357	0.631	-0.048	-0.584	0.088	-0.082	0.032	-0.087	-0.044	-0.044
-0.456	-0.816	-0.36	0.635	-0.048	-0.588	0.09	-0.08	0.032	-0.086	-0.045	-0.044
-0.473	-0.811	-0.339	0.642	-0.067	-0.575	0.096	-0.078	0.033	-0.086	-0.044	-0.043
-0.471	-0.808	-0.337	0.64	-0.068	-0.573	0.095	-0.081	0.031	-0.088	-0.046	-0.045
-0.456	-0.811	-0.355	0.633	-0.051	-0.583	0.092	-0.085	0.026	-0.092	-0.05	-0.048
-0.467	-0.822	-0.355	0.643	-0.056	-0.588	0.091	-0.086	0.024	-0.096	-0.053	-0.051
-0.47	-0.822	-0.351	0.645	-0.059	-0.587	0.09	-0.088	0.022	-0.096	-0.055	-0.052
-0.462	-0.816	-0.353	0.638	-0.054	-0.585	0.092	-0.086	0.024	-0.093	-0.053	-0.051
-0.463	-0.816	-0.353	0.639	-0.055	-0.584	0.092	-0.087	0.023	-0.095	-0.054	-0.051
-0.46	-0.818	-0.357	0.638	-0.051	-0.588	0.092	-0.087	0.021	-0.095	-0.055	-0.051
-0.466	-0.826	-0.36	0.645	-0.052	-0.593	0.093	-0.087	0.019	-0.096	-0.056	-0.054
-0.469	-0.827	-0.358	0.647	-0.055	-0.592	0.101	-0.088	0.02	-0.095	-0.057	-0.054
-0.463	-0.827	-0.364	0.645	-0.05	-0.596	0.099	-0.087	0.02	-0.093	-0.059	-0.052
-0.461	-0.829	-0.369	0.644	-0.046	-0.599	0.092	-0.089	0.017	-0.095	-0.06	-0.054
-0.46	-0.828	-0.368	0.643	-0.045	-0.598	0.095	-0.09	0.016	-0.097	-0.061	-0.056
-0.466	-0.825	-0.359	0.644	-0.053	-0.592	0.097	-0.089	0.016	-0.096	-0.061	-0.056
-0.47	-0.823	-0.352	0.646	-0.059	-0.587	0.102	-0.088	0.018	-0.096	-0.061	-0.056
-0.474	-0.826	-0.351	0.649	-0.061	-0.588	0.1	-0.09	0.017	-0.1	-0.065	-0.058
-0.48	-0.825	-0.344	0.652	-0.068	-0.584	0.098	-0.091	0.016	-0.101	-0.065	-0.057
-0.484	-0.828	-0.343	0.656	-0.071	-0.585	0.097	-0.096	0.011	-0.104	-0.068	-0.06
-0.485	-0.83	-0.344	0.657	-0.07	-0.587	0.093	-0.101	0.005	-0.11	-0.072	-0.066
-0.485	-0.828	-0.343	0.656	-0.071	-0.586	0.091	-0.102	0.004	-0.113	-0.076	-0.068
-0.489	-0.832	-0.344	0.66	-0.072	-0.588	0.09	-0.104	0.002	-0.116	-0.079	-0.07
-0.488	-0.833	-0.344	0.66	-0.071	-0.589	0.089	-0.106	-0.001	-0.119	-0.081	-0.071
-0.488	-0.831	-0.343	0.659	-0.073	-0.587	0.089	-0.109	-0.004	-0.121	-0.084	-0.072
-0.491	-0.833	-0.342	0.661	-0.074	-0.587	0.09	-0.109	-0.003	-0.119	-0.083	-0.073
-0.493	-0.832	-0.34	0.662	-0.076	-0.586	0.092	-0.108	-0.003	-0.12	-0.083	-0.073
-0.487	-0.829	-0.342	0.658	-0.073	-0.585	0.092	-0.11	-0.005	-0.121	-0.084	-0.073
-0.486	-0.834	-0.347	0.659	-0.07	-0.59	0.091	-0.111	-0.005	-0.121	-0.086	-0.077
-0.486	-0.837	-0.35	0.661	-0.068	-0.594	0.093	-0.11	-0.005	-0.121	-0.086	-0.079
-0.485	-0.84	-0.354	0.662	-0.065	-0.597	0.096	-0.107	-0.004	-0.119	-0.087	-0.077
-0.492	-0.847	-0.354	0.669	-0.069	-0.6	0.097	-0.104	-0.004	-0.12	-0.088	-0.08
-0.494	-0.848	-0.353	0.671	-0.07	-0.601	0.1	-0.105	-0.005	-0.12	-0.089	-0.081
-0.494	-0.85	-0.354	0.671	-0.07	-0.602	0.1	-0.105	-0.007	-0.12	-0.092	-0.085
-0.492	-0.848	-0.354	0.669	-0.069	-0.601	0.102	-0.104	-0.005	-0.118	-0.091	-0.086
-0.495	-0.848	-0.352	0.671	-0.071	-0.6	0.103	-0.104	-0.006	-0.12	-0.092	-0.085
-0.493	-0.851	-0.358	0.672	-0.068	-0.604	0.102	-0.105	-0.007	-0.124	-0.093	-0.087
-0.488	-0.848	-0.36	0.668	-0.065	-0.604	0.101	-0.105	-0.008	-0.121	-0.092	-0.087
-0.494	-0.845	-0.349	0.669	-0.072	-0.597	0.1	-0.105	-0.009	-0.122	-0.094	-0.089
-0.496	-0.848	-0.352	0.671	-0.072	-0.6	0.101	-0.107	-0.009	-0.126	-0.095	-0.09
-0.491	-0.845	-0.354	0.667	-0.069	-0.599	0.097	-0.112	-0.013	-0.13	-0.099	-0.093
-0.496	-0.847	-0.35	0.671	-0.073	-0.598	0.091	-0.117	-0.019	-0.137	-0.104	-0.099
-0.505	-0.853	-0.347	0.678	-0.079	-0.6	0.091	-0.121	-0.021	-0.14	-0.108	-0.102
-0.501	-0.851	-0.348	0.675	-0.076	-0.599	0.09	-0.123	-0.025	-0.144	-0.112	-0.106
-0.499	-0.847	-0.347	0.672	-0.076	-0.597	0.09	-0.124	-0.027	-0.148	-0.113	-0.108
-0.503	-0.85	-0.346	0.676	-0.079	-0.598	0.093	-0.125	-0.027	-0.149	-0.116	-0.11
-0.5	-0.85	-0.349	0.674	-0.075	-0.599	0.091	-0.129	-0.03	-0.151	-0.118	-0.113
-0.499	-0.85	-0.35	0.674	-0.074	-0.6	0.092	-0.129	-0.032	-0.15	-0.118	-0.112
-0.502	-0.855	-0.352	0.678	-0.074	-0.604	0.094	-0.128	-0.031	-0.152	-0.12	-0.115
-0.501	-0.856	-0.354	0.678	-0.073	-0.605	0.097	-0.128	-0.03	-0.152	-0.121	-0.116
-0.509	-0.857	-0.347	0.682	-0.081	-0.602	0.1	-0.125	-0.028	-0.15	-0.12	-0.115
-0.513	-0.857	-0.344	0.684	-0.085	-0.601	0.104	-0.121	-0.025	-0.146	-0.118	-0.113
-0.513	-0.857	-0.344	0.684	-0.085	-0.6	0.108	-0.117	-0.024	-0.144	-0.118	-0.113
-0.514	-0.855	-0.341	0.684	-0.087	-0.598	0.11	-0.117	-0.024	-0.146	-0.119	-0.114
-0.515	-0.854	-0.338	0.684	-0.089	-0.596	0.112	-0.117	-0.023	-0.144	-0.118	-0.114
-0.517	-0.853	-0.336	0.685	-0.09	-0.594	0.113	-0.116	-0.022	-0.144	-0.119	-0.115
-0.522	-0.857	-0.335	0.689	-0.093	-0.596	0.115	-0.117	-0.024	-0.146	-0.121	-0.117
-0.526	-0.861	-0.334	0.693	-0.096	-0.597	0.118	-0.118	-0.025	-0.15	-0.124	-0.121
-0.522	-0.857	-0.335	0.69	-0.094	-0.596	0.118	-0.116	-0.025	-0.15	-0.124	-0.122
-0.524	-0.857	-0.332	0.69	-0.096	-0.594	0.116	-0.117	-0.025	-0.151	-0.124	-0.121
-0.52	-0.851	-0.331	0.685	-0.095	-0.591	0.117	-0.12	-0.028	-0.155	-0.127	-0.123
-0.517	-0.847	-0.33	0.682	-0.094	-0.588	0.117	-0.122	-0.029	-0.155	-0.127	-0.124
-0.514	-0.847	-0.332	0.68	-0.091	-0.589	0.113	-0.121	-0.029	-0.158	-0.129	-0.127
-0.518	-0.842	-0.325	0.679	-0.097	-0.583	0.115	-0.124	-0.032	-0.16	-0.131	-0.129
-0.526	-0.842	-0.315	0.684	-0.105	-0.578	0.115	-0.126	-0.034	-0.161	-0.133	-0.132
-0.525	-0.837	-0.311	0.681	-0.107	-0.574	0.115	-0.123	-0.035	-0.162	-0.135	-0.134
-0.527	-0.829	-0.301	0.678	-0.113	-0.565	0.115	-0.128	-0.035	-0.165	-0.138	-0.136
-0.525	-0.818	-0.292	0.671	-0.117	-0.555	0.111	-0.132	-0.037	-0.166	-0.141	-0.138
-0.525	-0.819	-0.293	0.672	-0.116	-0.556	0.114	-0.127	-0.037	-0.165	-0.139	-0.139
-0.524	-0.856	-0.331	0.69	-0.097	-0.593	0.126	-0.115	-0.028	-0.152	-0.13	-0.129
-0.521	-0.878	-0.356	0.7	-0.083	-0.617	0.134	-0.107	-0.018	-0.143	-0.12	-0.119
-0.523	-0.863	-0.339	0.693	-0.092	-0.601	0.13	-0.111	-0.022	-0.148	-0.125	-0.126
-0.525	-0.854	-0.329	0.689	-0.099	-0.591	0.128	-0.114	-0.026	-0.153	-0.132	-0.131
-0.529	-0.854	-0.324	0.691	-0.102	-0.589	0.132	-0.113	-0.023	-0.151	-0.131	-0.131
-0.528	-0.843	-0.315	0.685	-0.106	-0.579	0.134	-0.111	-0.022	-0.149	-0.129	-0.131
-0.525	-0.844	-0.319	0.684	-0.103	-0.581	0.133	-0.111	-0.024	-0.15	-0.131	-0.132
-0.526	-0.845	-0.32	0.685	-0.103	-0.582	0.13	-0.113	-0.025	-0.153	-0.133	-0.135
-0.523	-0.841	-0.318	0.682	-0.102	-0.579	0.132	-0.112	-0.024	-0.152	-0.133	-0.135
-0.521	-0.845	-0.324	0.683	-0.099	-0.584	0.132	-0.114	-0.025	-0.154	-0.135	-0.136
-0.518	-0.838	-0.321	0.677	-0.099	-0.579	0.129	-0.117	-0.026	-0.156	-0.137	-0.137
-0.515	-0.835	-0.32	0.674	-0.098	-0.577	0.128	-0.117	-0.028	-0.157	-0.139	-0.138
-0.516	-0.837	-0.32	0.676	-0.098	-0.578	0.126	-0.12	-0.032	-0.162	-0.142	-0.142
-0.518	-0.835	-0.317	0.676	-0.101	-0.576	0.123	-0.124	-0.035	-0.166	-0.146	-0.145
-0.519	-0.838	-0.32	0.678	-0.1	-0.579	0.121	-0.128	-0.04	-0.172	-0.151	-0.15
-0.519	-0.843	-0.323	0.681	-0.099	-0.582	0.118	-0.133	-0.045	-0.177	-0.158	-0.157
-0.519	-0.848	-0.329	0.683	-0.096	-0.588	0.117	-0.133	-0.045	-0.177	-0.159	-0.157
-0.519	-0.849	-0.33	0.684	-0.095	-0.59	0.117	-0.134	-0.047	-0.179	-0.16	-0.157
-0.52	-0.849	-0.329	0.684	-0.096	-0.589	0.117	-0.135	-0.048	-0.179	-0.161	-0.159
-0.519	-0.85	-0.331	0.684	-0.095	-0.59	0.116	-0.138	-0.05	-0.18	-0.164	-0.162
-0.518	-0.847	-0.328	0.682	-0.095	-0.588	0.114	-0.141	-0.051	-0.182	-0.166	-0.165
-0.521	-0.848	-0.327	0.684	-0.098	-0.587	0.114	-0.142	-0.051	-0.181	-0.167	-0.166
-0.525	-0.853	-0.328	0.689	-0.099	-0.59	0.117	-0.142	-0.052	-0.181	-0.168	-0.166
-0.518	-0.848	-0.33	0.682	-0.094	-0.588	0.118	-0.14	-0.05	-0.178	-0.167	-0.165
-0.515	-0.848	-0.333	0.68	-0.091	-0.59	0.117	-0.141	-0.049	-0.179	-0.167	-0.165
-0.515	-0.849	-0.334	0.681	-0.09	-0.591	0.117	-0.142	-0.051	-0.179	-0.168	-0.165
-0.511	-0.848	-0.337	0.678	-0.087	-0.592	0.117	-0.142	-0.051	-0.178	-0.17	-0.167
-0.512	-0.853	-0.342	0.682	-0.085	-0.597	0.114	-0.145	-0.052	-0.182	-0.173	-0.168
-0.512	-0.856	-0.344	0.684	-0.085	-0.599	0.113	-0.146	-0.054	-0.183	-0.175	-0.169
-0.512	-0.863	-0.351	0.687	-0.08	-0.607	0.113	-0.146	-0.054	-0.183	-0.176	-0.17
-0.511	-0.867	-0.356	0.689	-0.077	-0.612	0.116	-0.149	-0.055	-0.186	-0.177	-0.169
-0.513	-0.87	-0.357	0.692	-0.078	-0.614	0.12	-0.146	-0.053	-0.186	-0.178	-0.169
-0.515	-0.856	-0.341	0.685	-0.087	-0.598	0.115	-0.154	-0.06	-0.197	-0.186	-0.178
-0.516	-0.825	-0.308	0.67	-0.103	-0.567	0.102	-0.171	-0.073	-0.212	-0.202	-0.193
-0.523	-0.827	-0.304	0.675	-0.11	-0.566	0.102	-0.173	-0.076	-0.217	-0.207	-0.198
-0.527	-0.837	-0.31	0.681	-0.108	-0.573	0.108	-0.172	-0.074	-0.216	-0.206	-0.196
-0.529	-0.845	-0.316	0.686	-0.106	-0.58	0.109	-0.173	-0.075	-0.217	-0.209	-0.198
-0.53	-0.846	-0.316	0.688	-0.107	-0.581	0.106	-0.175	-0.077	-0.219	-0.21	-0.199
-0.528	-0.837	-0.308	0.682	-0.11	-0.573	0.108	-0.175	-0.076	-0.219	-0.21	-0.198
-0.528	-0.839	-0.31	0.683	-0.108	-0.575	0.111	-0.175	-0.077	-0.218	-0.21	-0.199
-0.525	-0.843	-0.318	0.683	-0.104	-0.58	0.11	-0.174	-0.078	-0.219	-0.211	-0.202
-0.529	-0.843	-0.315	0.685	-0.107	-0.579	0.11	-0.175	-0.077	-0.219	-0.213	-0.203
-0.532	-0.845	-0.312	0.689	-0.11	-0.579	0.114	-0.173	-0.076	-0.217	-0.211	-0.202
-0.531	-0.846	-0.314	0.688	-0.108	-0.58	0.116	-0.171	-0.073	-0.215	-0.21	-0.202
-0.536	-0.846	-0.309	0.691	-0.114	-0.578	0.116	-0.173	-0.074	-0.215	-0.212	-0.204
-0.535	-0.846	-0.31	0.691	-0.113	-0.578	0.119	-0.174	-0.076	-0.217	-0.212	-0.203
-0.532	-0.841	-0.308	0.686	-0.112	-0.575	0.118	-0.176	-0.076	-0.217	-0.212	-0.203
-0.53	-0.841	-0.31	0.685	-0.11	-0.576	0.117	-0.175	-0.075	-0.219	-0.214	-0.205
-0.53	-0.839	-0.309	0.684	-0.111	-0.574	0.118	-0.175	-0.076	-0.222	-0.215	-0.207
-0.53	-0.838	-0.307	0.684	-0.112	-0.573	0.118	-0.178	-0.076	-0.221	-0.216	-0.207
-0.527	-0.834	-0.307	0.68	-0.11	-0.571	0.117	-0.18	-0.076	-0.223	-0.216	-0.206
-0.536	-0.836	-0.3	0.685	-0.118	-0.568	0.115	-0.183	-0.079	-0.226	-0.218	-0.209
-0.536	-0.84	-0.303	0.688	-0.116	-0.571	0.112	-0.185	-0.081	-0.23	-0.221	-0.212
-0.533	-0.836	-0.303	0.684	-0.115	-0.569	0.108	-0.192	-0.086	-0.235	-0.224	-0.215
-0.535	-0.832	-0.297	0.683	-0.119	-0.564	0.109	-0.195	-0.086	-0.236	-0.224	-0.215
-0.53	-0.827	-0.296	0.678	-0.117	-0.561	0.111	-0.195	-0.085	-0.236	-0.224	-0.215
-0.528	-0.827	-0.298	0.677	-0.116	-0.562	0.108	-0.195	-0.086	-0.237	-0.226	-0.216
-0.53	-0.828	-0.297	0.678	-0.117	-0.562	0.106	-0.198	-0.088	-0.239	-0.227	-0.216
-0.53	-0.828	-0.297	0.678	-0.117	-0.562	0.107	-0.201	-0.088	-0.241	-0.226	-0.216
-0.53	-0.827	-0.296	0.678	-0.117	-0.56	0.108	-0.2	-0.086	-0.238	-0.226	-0.215
-0.529	-0.824	-0.294	0.676	-0.117	-0.558	0.109	-0.201	-0.086	-0.239	-0.226	-0.218
-0.525	-0.823	-0.298	0.674	-0.114	-0.56	0.11	-0.201	-0.086	-0.237	-0.225	-0.217
-0.519	-0.821	-0.301	0.669	-0.11	-0.56	0.11	-0.2	-0.086	-0.235	-0.224	-0.216
