#f	lead1	lead2	lead3	lead4	lead5	lead6	lead7	lead8	lead9	lead10	lead11	lead12
0.009999	87.4495	17.4659	109.563	75.5889	130.028	0.03396	0.0305516	0.987887	1.30724e-05	1.15995e-06	1.36874e-05	4.86049e-06
0.019998	344.597	69.2007	432.018	298.081	512.493	0.181562	0.285167	3.9384	5.47857e-05	4.91571e-06	5.51268e-05	1.97014e-05
0.029997	756.143	153.284	949.058	654.917	1125.04	0.574981	1.23716	8.81149	0.000132306	1.20526e-05	0.00012539	4.52581e-05
0.039996	1297.52	266.709	1631.52	1126.06	1931.97	1.41836	3.62519	15.5403	0.00025657	2.37433e-05	0.000226052	8.2621e-05
0.049995	1936.36	405.66	2441.21	1685.23	2886.5	2.96501	8.38107	24.0295	0.000440845	4.1361e-05	0.000358912	0.000133045
0.059994	2634.24	565.85	3333.44	2301.58	3933.68	5.48885	16.5391	34.1549	0.000698938	6.62498e-05	0.000525593	0.000197708
0.069993	3348.95	742.853	4259.81	2941.59	5013.77	9.25189	29.1298	45.7629	0.00104319	9.9479e-05	0.000727124	0.00027745
0.079992	4036.92	932.447	5171.26	3571.1	6065.93	14.4718	47.0721	58.6697	0.00148247	0.000141616	0.000963448	0.000372493
0.089991	4655.8	1130.86	6021.1	4157.43	7031.91	21.2917	71.0671	72.6621	0.00202037	0.000192542	0.00123298	0.000482218
0.09999	5166.99	1334.94	6767.9	4671.16	7859.38	29.7558	101.506	87.5008	0.00265373	0.000251333	0.00153224	0.000604969
0.109989	5538.05	1542.17	7377.65	5087.98	8505.12	39.7925	138.401	102.92	0.0033718	0.000316242	0.00185549	0.000737974
0.119988	5744.66	1750.57	7825.88	5389.77	8937.02	51.2073	181.339	118.633	0.00415602	0.000384759	0.00219466	0.000877316
0.129987	5772.35	1958.56	8098.56	5565.66	9136.1	63.6864	229.468	134.34	0.00498038	0.000453779	0.00253928	0.00101805
0.139986	5617.58	2164.57	8192.8	5612.2	9096.69	76.8107	281.515	149.733	0.00581269	0.000519843	0.00287673	0.00115448
0.149985	5288.15	2366.8	8116.14	5533.43	8826.76	90.0774	335.844	164.502	0.00661646	0.000579438	0.0031927	0.00128037
0.159984	4803.12	2562.86	7885.79	5340.08	8346.56	102.935	390.529	178.345	0.00735298	0.000629338	0.00347179	0.00138952
0.169983	4191.81	2749.49	7526.95	5048.76	7686.92	114.814	443.457	190.982	0.00798433	0.000666913	0.00369835	0.00147615
0.179982	3492.36	2922.45	7070.6	4680.48	6886.86	125.17	492.459	202.157	0.00847597	0.000690425	0.00385746	0.00153549
0.189981	2749.61	3076.43	6550.92	4259.14	5990.94	133.521	535.424	211.649	0.00879944	0.000699246	0.0039361	0.00156422
0.19998	2012.49	3205.31	6003.26	3809.87	5046.07	139.478	570.433	219.28	0.00893481	0.000693946	0.00392421	0.00156104
0.209979	1331.04	3302.4	5461.04	3357.33	4098.62	142.775	595.884	224.922	0.00887252	0.000676315	0.00381582	0.001527
0.219978	753.409	3360.96	4954.03	2924.24	3191.56	143.286	610.577	228.499	0.00861443	0.000649225	0.00361004	0.00146568
0.229977	322.669	3374.81	4506.14	2529.94	2362.01	141.032	613.801	229.994	0.00817429	0.000616395	0.00331177	0.00138341
0.239976	73.9067	3339.01	4134.31	2189.55	1639.44	136.178	605.372	229.437	0.00757707	0.000582062	0.00293216	0.00128899
0.249975	31.7736	3250.48	3847.63	1913.13	1044.33	129.018	585.649	226.918	0.00685753	0.000550576	0.00248869	0.00119348
0.259974	208.515	3108.61	3647.45	1705.54	587.587	119.954	555.509	222.57	0.00605824	0.000525978	0.00200473	0.00110961
0.269973	602.769	2915.65	3527.5	1566.46	270.704	109.463	516.302	216.566	0.00522651	0.000511598	0.00150883	0.00105105
0.279972	1199.16	2676.96	3475.22	1490.93	86.4614	98.0608	469.752	209.113	0.00441136	0.000509698	0.0010334	0.00103161
0.289971	1968.82	2400.89	3473.15	1469.98	20.2286	86.2678	417.877	200.438	0.00366004	0.000521217	0.000613031	0.00106416
0.29997	2870.8	2098.54	3500.61	1491.71	51.6622	74.569	362.854	190.779	0.00301484	0.00054566	0.000282499	0.00115963
0.309969	3854.23	1783.04	3535.63	1542.32	156.673	63.3879	306.903	180.378	0.00250998	0.000581097	7.45609e-05	0.00132608
0.319968	4861.36	1468.79	3556.99	1607.32	309.503	53.0582	252.16	169.465	0.00216933	0.000624352	1.76284e-05	0.00156762
0.329967	5831.12	1170.35	3545.79	1672.62	484.738	43.8102	200.568	158.259	0.00200475	0.000671306	0.000133546	0.00188386
0.339966	6702.92	901.408	3487.15	1725.53	659.121	35.7662	153.772	146.95	0.00201538	0.000717328	0.000435595	0.00226931
0.349965	7420.69	673.621	3371.19	1755.61	813.044	28.9439	113.056	135.702	0.00218784	0.000757789	0.000926878	0.00271321
0.359964	7936.77	495.62	3193.71	1755.23	931.635	23.2712	79.2836	124.648	0.00249747	0.000788591	0.00159929	0.00319965
0.369963	8215.37	372.312	2956.39	1719.9	1005.36	18.6087	52.885	113.891	0.00291028	0.000806694	0.00243318	0.00370816
0.379962	8235.02	304.369	2666.45	1648.37	1030.19	14.7769	33.8614	103.499	0.0033857	0.000810555	0.0033976	0.0042147
0.389961	7991.02	288.154	2335.87	1542.44	1007.25	11.5865	21.8221	93.5196	0.00387977	0.000800462	0.00445163	0.00469258
0.39996	7495.76	316.058	1980.38	1406.56	942.16	8.86903	16.0378	83.9734	0.00434857	0.000778683	0.00554616	0.00511434
0.409959	6778.63	377.161	1618	1247.29	844.008	6.50315	15.5185	74.8696	0.00475147	0.000749445	0.00662652	0.00545326
0.419958	5884.43	458.312	1267.53	1072.64	724.174	4.43598	19.0966	66.2053	0.00505428	0.000718719	0.00763563	0.00568532
0.429957	4870.98	545.378	947.138	891.334	595.026	2.69576	25.5186	57.9751	0.0052316	0.000693807	0.00851756	0.00579097
0.439956	3805.28	624.681	672.869	712.122	468.694	1.39511	33.5343	50.1766	0.00526854	0.000682756	0.00922092	0.00575678
0.449955	2759.41	684.43	457.423	543.111	355.938	0.72458	41.9779	42.8145	0.0051615	0.000693713	0.0097027	0.00557707
0.459954	1805.61	715.969	309.339	391.242	265.278	0.936221	49.8382	35.903	0.00491806	0.000734135	0.00993132	0.00525472
0.469953	1011.29	714.836	232.401	261.875	202.356	2.31917	56.3096	29.4687	0.00455586	0.000810075	0.00988897	0.00480198
0.479952	434.264	681.28	225.506	158.536	169.642	5.169	60.8274	23.5483	0.00410074	0.000925491	0.00957376	0.00424026
0.489951	118.494	620.487	282.898	82.8553	166.457	9.75327	63.0808	18.1882	0.0035842	0.0010817	0.00899998	0.00359978
0.49995	90.6213	542.164	394.757	34.6055	189.264	16.2779	63.0085	13.4397	0.00304052	0.00127703	0.00819825	0.00291821
0.509949	357.716	459.581	548.053	11.9118	232.23	24.8546	60.7741	9.3545	0.00250368	0.00150669	0.00721395	0.00223895
0.519948	906.24	388.359	727.657	11.5474	287.945	35.4762	56.7318	5.97888	0.00200444	0.00176286	0.00610457	0.00160885
0.529947	1702.59	344.739	917.52	29.3019	348.247	47.9987	51.3761	3.34817	0.00156786	0.00203507	0.00493657	0.00107555
0.539946	2694.92	343.781	1101.88	60.3813	405.067	62.1362	45.2898	1.48098	0.00121144	0.00231076	0.00378112	0.00068457
0.549945	3816.52	397.542	1266.43	99.8046	451.208	77.4641	39.0863	0.374536	0.000944109	0.00257612	0.00270959	0.000476333
0.559944	4990.17	513.401	1399.23	142.771	481.002	93.437	33.3603	0.00147285	0.00076607	0.00281687	0.00178884	0.000483275
0.569943	6133.58	692.857	1491.54	184.964	490.766	109.416	28.637	0.30802	0.000669658	0.00301935	0.00107673	0.000727397
0.579942	7165.1	930.732	1538.17	222.788	479.06	124.705	25.3372	1.21426	0.000640933	0.00317135	0.000618031	0.00121814
0.589941	8009.81	1215.12	1537.74	253.516	446.714	138.591	23.7493	2.61635	0.000662111	0.00326308	0.000441294	0.00195106
0.59994	8605.07	1527.94	1492.48	275.359	396.637	150.397	24.0159	4.39057	0.000714353	0.00328773	0.000556653	0.00290731
0.609939	8905.34	1846.23	1407.85	287.451	333.429	159.517	26.1305	6.39928	0.000780771	0.00324214	0.000955046	0.00405377
0.619938	8886	2144.09	1291.89	289.782	262.867	165.469	29.9486	8.49771	0.000849358	0.00312685	0.00160851	0.00534448
0.629937	8545.59	2394.97	1154.41	283.07	191.277	167.919	35.2044	10.5423	0.00091543	0.00294623	0.00247213	0.00672254
0.639936	7906.19	2574.24	1006.19	268.604	124.926	166.715	41.5387	12.3984	0.000983378	0.00270807	0.00348701	0.00812316
0.649935	7012.65	2661.89	857.943	248.081	69.3965	161.891	48.5281	13.9485	0.00106755	0.00242325	0.00458438	0.00947697
0.659934	5929.19	2644.85	719.578	223.43	29.0912	153.674	55.7199	15.0985	0.00119194	0.00210481	0.00569049	0.0107142
0.669933	4735.26	2518.91	599.414	196.661	6.8541	142.464	62.6627	15.7835	0.00138893	0.0017674	0.00673196	0.0117689
0.679932	3519.65	2289.84	503.656	169.726	3.75917	128.812	68.9366	15.9715	0.00169671	0.00142617	0.00764113	0.0125827
0.689931	2373.94	1973.74	436.047	144.419	19.0731	113.383	74.1785	15.664	0.00215609	0.00109609	0.00836105	0.0131095
0.69993	1385.39	1596.29	397.718	122.284	50.3917	96.9143	78.1001	14.8956	0.0028063	0.000791116	0.00885006	0.0133177
0.709929	630.166	1191.15	387.299	104.57	93.9297	80.1641	80.5004	13.7309	0.00368078	0.000523622	0.0090847	0.0131936
0.719928	167.122	797.28	401.221	92.1862	144.924	63.8645	81.2702	12.2586	0.00480273	0.000303924	0.0090622	0.0127424
0.729927	32.8115	455.832	434.152	85.6934	198.115	48.6777	80.3929	10.5851	0.00618129	0.00014009	0.00880066	0.0119887
0.739926	238.1	206.252	479.555	85.2884	248.258	35.1543	77.9334	8.82669	0.00780839	3.78856e-05	0.00833811	0.0109759
0.749925	766.76	82.5479	530.357	90.8168	290.602	23.7045	74.0327	7.10033	0.00965675	9.57284e-07	0.00773019	0.0097639
0.759924	1576.08	109.627	579.554	101.777	321.319	14.5783	68.8893	5.51558	0.0116796	3.11088e-05	0.00704595	0.00842604
0.769923	2599.81	300.265	620.815	117.34	337.804	7.85926	62.7449	4.16677	0.0138116	0.000128686	0.00636332	0.00704531
0.779922	3752.79	653.036	648.993	136.382	338.875	3.47043	55.8694	3.1264	0.0159711	0.000292978	0.00576315	0.00570951
0.789921	4937.71	1151.38	660.489	157.522	324.815	1.19108	48.5436	2.4405	0.018065	0.00052257	0.00532334	0.00450592
0.79992	6052.62	1764.03	653.477	179.185	297.264	0.684551	41.0472	2.12594	0.0199934	0.000815597	0.00511281	0.00351617
0.809919	6999.41	2446.97	627.995	199.677	259.026	1.53286	33.6475	2.17021	0.0216567	0.00116988	0.00518643	0.00281121
0.819918	7692.19	3146.57	585.793	217.284	213.724	3.27595	26.5895	2.53317	0.0229616	0.00158281	0.00558007	0.0024466
0.829917	8065.1	3804.02	530.175	230.392	165.436	5.45183	20.091	3.15128	0.0238286	0.00205119	0.00630768	0.00245889
0.839916	8078.56	4360.44	465.605	237.617	118.282	7.63486	14.3382	3.94327	0.024198	0.00257079	0.00735955	0.00286304
0.849915	7723.82	4762.5	397.286	237.944	76.0355	9.46862	9.48383	4.81725	0.0240345	0.00313592	0.00870222	0.00365096
0.859914	7025.19	4967.94	330.717	230.857	41.7825	10.6911	5.6469	5.67846	0.0233324	0.0037388	0.0102801	0.00479174
0.869913	6039.38	4950.3	271.199	216.456	17.6667	11.1502	2.91268	6.43717	0.0221159	0.00436917	0.0120188	0.00623278
0.879912	4852.27	4702.69	223.407	195.536	4.73645	10.8089	1.33358	7.01583	0.02044	0.00501378	0.0138291	0.00790291
0.889911	3573.04	4240.01	191.031	169.623	2.90741	9.74008	0.930142	7.35537	0.0183878	0.00565626	0.0156135	0.00971608
0.89991	2325.95	3599.11	176.482	140.946	11.037	8.11061	1.6913	7.41971	0.0160661	0.00627734	0.0172717	0.0115764
0.909909	1240.68	2837.12	180.742	112.347	27.1	6.15897	3.57501	7.19808	0.0135996	0.00685503	0.0187072	0.0133838
0.919908	441.116	2027.52	203.304	87.1214	48.4431	4.16535	6.50857	6.70572	0.0111229	0.00736548	0.0198338	0.0150396
0.929907	34.449	1254.52	242.238	68.791	72.0892	2.4203	10.3887	5.98189	0.0087725	0.00778422	0.0205816	0.0164522
0.939906	100.749	605.808	294.358	60.8214	95.0582	1.19207	15.0822	5.08612	0.00667793	0.00808737	0.0209003	0.0175433
0.949905	684.212	164.482	355.472	66.3092	114.673	0.697752	20.4276	4.09283	0.00495323	0.00825332	0.0207637	0.0182513
0.959904	1786.79	0.65432	420.722	87.6547	128.818	1.07928	26.2377	3.08461	0.00368962	0.00826463	0.0201708	0.0185359
0.969903	3365	163.553	484.925	126.249	136.123	2.38737	32.3029	2.14495	0.00294959	0.00810946	0.0191457	0.0183795
0.979902	5330.36	674.928	542.968	182.214	136.069	4.57442	38.3973	1.35094	0.00276267	0.00778348	0.0177359	0.0177886
0.989901	7553.4	1524.4	590.171	254.213	128.981	7.49674	44.2851	0.766589	0.00312388	0.00729089	0.0160093	0.0167932
0.9999	9872.03	2667.58	622.635	339.381	115.949	10.9267	49.7297	0.437329	0.00399429	0.00664537	0.0140493	0.0154444
1.0099	12102.6	4027.05	637.522	433.364	98.6497	14.5728	54.5031	0.386108	0.00530396	0.00587028	0.0119496	0.0138115
1.0199	14054.8	5496.86	633.279	530.507	79.1313	18.1064	58.3958	0.611529	0.00695732	0.00499836	0.00980842	0.0119771
1.0299	15547.2	6950	609.794	624.193	59.5431	21.1933	61.2293	1.08808	0.00883988	0.00407059	0.0077216	0.0100323
1.0399	16424.9	8249.04	568.465	707.273	41.878	23.5257	62.8649	1.76856	0.0108265	0.00313466	0.00577756	0.00807126
1.04989	16576.4	9258.85	512.179	772.652	27.7396	24.8542	63.2137	2.58833	0.0127905	0.00224234	0.00405157	0.0061851
1.05989	15948.3	9861.19	445.237	813.904	18.1586	25.0151	62.2453	3.4713	0.014612	0.00144709	0.0026019	0.00445698
1.06989	14558	9968.73	373.179	825.926	13.4876	23.951	59.9919	4.3368	0.0161866	0.000800632	0.00146686	0.00295707
1.07989	12501.9	9539.59	302.577	805.584	13.3801	21.7237	56.5524	5.1072	0.0174318	0.00034984	0.000663434	0.00173897
1.08989	9958.96	8588.91	240.746	752.248	16.8596	18.5175	52.0913	5.7152	0.0182922	0.00013359	0.000187389	0.000836954
1.09989	7188.23	7197.48	195.431	668.214	22.4724	14.6322	46.8359	6.11034	0.0187424	0.00017987	1.47883e-05	0.000264765
1.10989	4521.28	5516.41	174.461	558.941	28.5068	10.4666	41.0687	6.26423	0.0187878	0.000503508	0.000104827	1.55826e-05
1.11989	2348.51	3766.6	185.368	433.075	33.2563	6.49335	35.1178	6.17405	0.018462	0.00110454	0.000403687	6.3422e-05
1.12989	1100.41	2232.96	235.053	302.221	35.2982	3.22731	29.3436	5.8637	0.0178237	0.00196748	0.000849102	0.000365695
1.13989	1224.2	1252.75	329.381	180.494	33.7571	1.18954	24.1236	5.38266	0.0169501	0.00306155	0.00137524	0.000866791
1.14988	3158.03	1199.24	472.881	83.8095	28.5202	0.869259	19.8352	4.80297	0.0159301	0.00434179	0.00191767	0.00150235
1.15988	7302.83	2460.5	668.425	28.9942	20.382	2.68715	16.8382	4.21357	0.0148562	0.00575123	0.00241785	0.00220401
1.16988	13994.5	5415.03	916.995	32.7286	11.0941	6.96232	15.4559	3.71341	0.0138165	0.00722391	0.00282697	0.00290419
1.17988	23478.5	10405.2	1217.49	110.419	3.31201	13.8855	15.9581	3.4035	0.0128875	0.00868836	0.00310892	0.00354066
1.18988	35886.9	17711.1	1566.61	275.036	0.436437	23.501	18.5452	3.378	0.0121277	0.0100717	0.003242	0.00406051
1.19988	51221.1	27524.6	1958.84	536.034	6.35629	35.6963	23.3352	3.71621	0.0115735	0.0113038	0.00321954	0.00442341
1.20988	69340.3	39929.1	2386.56	898.416	25.1168	50.2052	30.3529	4.47496	0.011236	0.0123219	0.00304936	0.00460375
1.21988	89960	54881.3	2840.15	1362	60.536	66.6171	39.5241	5.6823	0.0111018	0.0130734	0.00275207	0.00459172
1.22988	112654	72201.9	3308.31	1921.04	115.807	84.3982	50.6741	7.33424	0.0111344	0.0135201	0.00235851	0.00439316
1.23988	136867	91573.3	3778.44	2564.03	193.113	102.921	63.5299	9.39269	0.0112788	0.0136397	0.00190649	0.00402846
1.24987	161936	112544	4237	3274.05	293.315	121.495	77.7276	11.7865	0.011467	0.0134275	0.00143724	0.00353018
1.25987	187116	134544	4670.15	4029.32	415.707	139.41	92.8265	14.4149	0.0116253	0.0128966	0.000991728	0.00294019
1.26987	211612	156906	5064.19	4804.19	557.905	155.969	108.323	17.1538	0.0116817	0.0120767	0.000607121	0.00230593
1.27987	234612	178894	5406.3	5570.22	715.849	170.53	123.675	19.8629	0.0115736	0.0110127	0.000313901	0.0016767
1.28987	255332	199737	5684.92	6297.84	883.965	182.537	138.321	22.3953	0.0112543	0.00976136	0.000133512	0.00109969
1.29987	273043	218667	5890.42	6957.65	1055.44	191.551	151.706	24.6071	0.0106985	0.00838771	7.69902e-05	0.000616477
1.30987	287112	234958	6015.51	7522.27	1222.61	197.264	163.312	26.3671	0.00990584	0.00696128	0.000144405	0.000260001
1.31987	297036	247964	6055.7	7967.67	1377.44	199.52	172.675	27.5669	0.00890221	0.00555156	0.000325334	5.2304e-05
1.32987	302457	257155	6009.36	8274.6	1512.08	198.314	179.418	28.127	0.00773862	0.00422383	0.000600112	3.13439e-06
1.33987	303181	262145	5878.08	8429.64	1619.38	193.784	183.26	28.0035	0.00648807	0.0030354	0.000941872	0.000109581
1.34986	299200	262711	5666.44	8426.09	1693.37	186.206	184.04	27.1921	0.00524	0.00203229	0.00131906	0.00035664
1.35986	290672	258811	5381.85	8264.27	1729.79	175.971	181.722	25.7273	0.0040935	0.00124692	0.00169828	0.000718692
1.36986	277927	250588	5034.32	7951.32	1726.29	163.56	176.401	23.6813	0.00314893	0.000696639	0.0020472	0.00116178
1.37986	261441	238359	4635.88	7501.28	1682.71	149.517	168.293	21.1596	0.00249959	0.000383355	0.00233723	0.00164643
1.38986	241819	222601	4200.09	6933.66	1601.1	134.42	157.737	18.2938	0.00222334	0.000294223	0.00254595	0.00213086
1.39986	219758	203928	3741.39	6272.78	1485.55	118.855	145.165	15.2333	0.00237537	0.00040326	0.00265875	0.00257425
1.40986	196020	183055	3274.36	5546.19	1342.03	103.383	131.089	12.1355	0.00298239	0.000673826	0.00266998	0.00293996
1.41986	171389	160766	2813.17	4783.14	1177.87	88.5249	116.067	9.15631	0.00403912	0.0010617	0.00258325	0.00319828
1.42986	146641	137868	2370.87	4013.03	1001.35	74.7316	100.682	6.4398	0.00550706	0.00151857	0.00241096	0.0033286
1.43986	122505	115154	1958.81	3263.85	821.131	62.3775	85.5032	4.10975	0.00731591	0.00199563	0.00217319	0.00332099
1.44985	99634.5	93361.4	1586.3	2560.67	645.68	51.747	71.0597	2.26224	0.00936748	0.00244706	0.00189593	0.00317671
1.45985	78584.1	73140.8	1260.15	1924.51	482.724	43.0312	57.8145	0.960617	0.0115419	0.00283308	0.00160889	0.00290816
1.46985	59787.9	55024	984.623	1371.48	338.777	36.3284	46.1365	0.232521	0.0137059	0.00312244	0.00134318	0.00253772
1.47985	43549.8	39404.1	761.335	912.124	218.763	31.6488	36.2887	0.0695272	0.0157215	0.00329415	0.00112872	0.00209602
1.48985	30037.4	26524.1	589.42	551.306	125.769	28.9214	28.4157	0.429216	0.0174565	0.00333843	0.000992018	0.00161962
1.49985	19287.5	16473.9	465.759	288.327	60.9308	28.006	22.541	1.23943	0.0187939	0.00325651	0.000954091	0.00114818
1.50985	11213.9	9196.36	385.364	117.443	23.4821	28.7049	18.5726	2.4044	0.0196402	0.00306001	0.00102895	0.00072149
1.51985	5624.23	4502.41	341.818	28.6381	10.9306	30.777	16.3171	3.81215	0.0199331	0.00276915	0.00122261	0.000376595
1.52985	2239.81	2092.05	327.769	8.629	19.3572	33.9497	15.4981	5.34272	0.0196458	0.00241064	0.00153274	0.000145003
1.53985	718.653	1582.1	335.448	41.9996	43.809	37.9348	15.7811	6.87659	0.0187899	0.00201505	0.00194892	5.04502e-05
1.54984	680.264	2536.13	357.163	112.387	78.747	42.437	16.8011	8.30236	0.0174146	0.0016141	0.00245343	0.000107192
1.55984	1730.19	4495.96	385.735	203.639	118.515	47.1689	18.1913	9.52403	0.0156039	0.0012378	0.00302273	0.000318991
1.56984	3483.03	7012.29	414.871	300.851	157.788	51.8576	19.6119	10.4661	0.0134712	0.000912185	0.00362903	0.000678888
1.57984	5582.69	9672.33	439.445	391.243	191.969	56.2534	20.7741	11.0774	0.0111511	0.000657157	0.00424229	0.00116969
1.58984	7718.97	12122.7	455.654	464.786	217.497	60.1383	21.4603	11.3331	0.00879077	0.000485169	0.00483225	0.0017652
1.59984	9639.44	14086.5	461.095	514.602	232.05	63.3283	21.5374	11.2338	0.00653975	0.000400497	0.00537038	0.00243205
1.60984	11156.7	15373.9	454.72	537.057	234.635	65.6792	20.9634	10.8047	0.00453979	0.000399265	0.00583164	0.00313196
1.61984	12150.7	15885.2	436.71	531.656	225.559	67.0875	19.785	10.0907	0.00291562	0.000470181	0.00619578	0.00382431
1.62984	12566.4	15607.4	408.275	500.65	206.28	67.4926	18.1283	9.15243	0.00176657	0.000595898	0.00644848	0.0044689
1.63984	12408.1	14605	371.401	448.512	179.184	66.8758	16.1833	8.0603	0.00116048	0.000754847	0.00658179	0.00502853
1.64983	11729.2	13005.6	328.575	381.27	147.274	65.2591	14.1823	6.88902	0.00112968	0.000923399	0.00659429	0.00547133
1.65983	10621.8	10981.3	282.512	305.783	113.846	62.703	12.3753	5.71136	0.00166955	0.00107819	0.00649064	0.00577274
1.66983	9202.96	8729.68	235.884	229.018	82.1358	59.3019	11.0041	4.59337	0.00273976	0.00119834	0.00628091	0.005917
1.67983	7602.5	6453.38	191.112	157.388	55.0145	55.1791	10.277	3.5902	0.00426794	0.00126744	0.00597938	0.00589782
1.68983	5950.44	4341.23	150.183	96.2143	34.7191	50.4825	10.3474	2.74297	0.0061553	0.00127511	0.00560356	0.00571866
1.69983	4366.32	2552.55	114.547	49.3105	22.6707	45.3758	11.2969	2.07725	0.00828405	0.00121798	0.00517257	0.00539227
1.70983	2950.74	1204.85	85.0634	18.7702	19.3738	40.0321	13.1251	1.6027	0.010526	0.00110011	0.00470606	0.00493946
1.71983	1779.43	366.345	62.0089	4.91237	24.4135	34.6266	15.7469	1.31426	0.0127509	0.000932696	0.00422282	0.0043879
1.72983	899.75	53.3657	45.1383	6.40209	36.5407	29.3281	18.9977	1.194	0.0148357	0.000733156	0.0037399	0.00376982
1.73983	330.201	232.49	33.7832	20.521	53.8364	24.2923	22.6458	1.2143	0.0166717	0.000523651	0.00327169	0.00312016
1.74982	62.1597	827.037	26.976	43.5468	73.9335	19.6545	26.4117	1.34109	0.0181709	0.00032919	0.00282958	0.00247412
1.75982	63.7012	1727.11	23.5841	71.2054	94.278	15.5253	29.9907	1.53768	0.019271	0.00017548	0.00242165	0.00186526
1.76982	284.877	2801.92	22.4439	99.1437	112.393	11.9851	33.0805	1.76806	0.0199372	8.66155e-05	0.00205283	0.0013233
1.77982	663.927	3913.47	22.4775	123.387	126.138	9.08301	35.407	2.00003	0.020163	8.29373e-05	0.00172501	0.000872728
1.78982	1133.86	4929.98	22.7845	140.725	133.908	6.83525	36.7494	2.20755	0.0199683	0.000179103	0.00143775	0.000531442
1.79982	1628.64	5738.31	22.7044	149.008	134.797	5.22679	36.9609	2.37228	0.0193962	0.000382629	0.00118867	0.000310081
1.80982	2088.8	6253.51	21.843	147.319	128.665	4.21394	35.9831	2.48421	0.0185076	0.000692928	0.000974179	0.000211791
1.81982	2465.72	6426.04	20.0687	136.016	116.143	3.72884	33.8531	2.54144	0.0173761	0.00110105	0.000790091	0.000232463
1.82982	2724.69	6244.52	17.4794	116.647	98.5511	3.6849	30.7025	2.54921	0.0160811	0.00158998	0.000632137	0.000361414
1.83982	2846.34	5735.48	14.3489	91.7394	77.7536	3.98311	26.7487	2.51819	0.014702	0.00213574	0.000496465	0.000582461
1.84981	2826.68	4959.1	11.058	64.5091	55.9586	4.51866	22.2772	2.4625	0.0133124	0.00270881	0.000379927	0.000875197
1.85981	2675.69	4001.9	8.02371	38.5016	35.4905	5.18764	17.6196	2.39749	0.0119754	0.00327629	0.000280235	0.00121655
1.86981	2414.94	2967.54	5.63127	17.2053	18.5488	5.89277	13.1264	2.33763	0.0107404	0.00380408	0.000195978	0.0015823
1.87981	2074.31	1965.74	4.17773	3.68513	6.98381	6.54893	9.13736	2.29459	0.00964107	0.0042594	0.000126572	0.00194864
1.88981	1688.46	1101.38	3.83288	0.25686	2.10939	7.08676	5.95363	2.27589	0.00869486	0.00461317	7.20074e-05	0.0022935
1.89981	1292.99	464.027	4.61936	8.24494	4.56878	7.45548	3.81225	2.28405	0.00790408	0.00484212	3.26279e-05	0.00259781
1.90981	921.158	119.372	6.4139	27.837	14.2688	7.62395	2.86555	2.31642	0.00725797	0.0049306	8.85405e-06	0.00284625
1.91981	600.929	103.017	8.96755	58.0521	30.386	7.58031	3.16816	2.36559	0.00673584	0.00487171	9.23733e-07	0.00302805
1.92981	352.912	417.34	11.9401	96.8244	51.4462	7.33079	4.67226	2.42036	0.00631068	0.00466804	8.67984e-06	0.00313697
1.93981	189.152	1031.57	14.9455	141.19	75.4677	6.89674	7.23097	2.46722	0.00595292	0.00433139	3.14287e-05	0.00317152
1.9498	112.792	1885.1	17.6006	187.556	100.152	6.31161	10.6108	2.4919	0.00563409	0.00388232	6.78744e-05	0.00313445
1.9598	118.668	2893.65	19.5716	232.048	123.11	5.61736	14.5111	2.48122	0.00532972	0.00334858	0.000116153	0.00303232
1.9698	194.604	3957.5	20.6145	270.859	142.098	4.86059	18.59	2.42464	0.00502174	0.00276329	0.000173913	0.00287461
1.9798	323.207	4971.52	20.6024	300.609	155.234	4.08856	22.4926	2.31557	0.00469964	0.00216281	0.000238491	0.00267308
1.9898	484.094	5835.23	19.5383	318.672	161.19	3.34671	25.8813	2.15239	0.00436079	0.00158412	0.000307088	0.00244071
1.9998	656.129	6462.73	17.5543	323.415	159.325	2.67562	28.465	1.93868	0.00400971	0.00106245	0.000376993	0.00219103
2.0098	819.541	6791.11	14.8949	314.363	149.758	2.10934	30.0225	1.6832	0.00365654	0.000628806	0.000445774	0.00193719
2.0198	957.787	6786.54	11.8885	292.246	133.361	1.674	30.4221	1.39913	0.0033149	0.000307908	0.000511429	0.00169138
2.0298	1058.86	6447.92	8.91132	258.947	111.696	1.38739	29.6306	1.10285	0.00299941	0.000116603	0.000572489	0.0014644
2.0398	1116.05	5806.99	6.34721	217.333	86.8662	1.25897	27.7171	0.812591	0.00272326	6.27564e-05	0.000628062	0.00126515
2.04979	1128.22	4925.75	4.54771	171.003	61.3303	1.29006	24.845	0.546592	0.00249594	0.000144832	0.000677807	0.00110062
2.05979	1099.27	3890.44	3.7977	123.963	37.6749	1.4746	21.2571	0.32146	0.00232159	0.000352102	0.000721832	0.000975769
2.06979	1037.39	2803.94	4.28874	80.2672	18.3717	1.79985	17.2538	0.150591	0.00219812	0.0006655	0.000760574	0.000893686
2.07979	953.721	1775.53	6.10448	43.6483	5.54612	2.24716	13.1672	0.0429147	0.00211708	0.00105908	0.000794601	0.000855718
2.08979	860.922	910.845	9.21627	17.1786	0.773445	2.7928	9.33035	0.00204976	0.00206453	0.00150187	0.000824483	0.000861814
2.09979	771.62	301.475	13.4907	2.99133	4.9238	3.40855	6.04982	0.0259885	0.00202267	0.00196016	0.000850577	0.000910712
2.10979	696.992	15.9764	18.7069	2.07996	18.0704	4.0627	3.57872	0.107296	0.00197203	0.00239988	0.000872917	0.00100025
2.11979	645.573	92.9094	24.5804	14.2074	39.4691	4.7208	2.0957	0.233848	0.00189426	0.00278896	0.000891143	0.00112767
2.12979	622.402	536.57	30.7913	37.9236	67.6142	5.34697	1.69099	0.389987	0.00177488	0.00309972	0.000904472	0.00128964
2.13979	628.63	1315.93	37.0126	70.6957	100.36	5.90526	2.36047	0.558033	0.00160593	0.0033106	0.000911783	0.00148255
2.14978	661.513	2366.88	42.9347	109.14	135.108	6.36145	4.00855	0.719959	0.0013881	0.00340778	0.000911673	0.00170241
2.15978	714.894	3597.63	48.2869	149.336	169.029	6.68531	6.45945	0.859079	0.00113218	0.00338608	0.000902663	0.00194489
2.16978	780.004	4896.87	52.8501	187.191	199.314	6.85317	9.47578	0.961624	0.000859427	0.00324922	0.000883373	0.00220537
2.17978	846.576	6143.97	56.464	218.832	223.422	6.85072	12.7825	1.01798	0.000600993	0.00300956	0.000852749	0.00247861
2.18978	904.078	7220.28	59.0264	240.977	239.309	6.67535	16.0946	1.02356	0.000396222	0.00268718	0.000810241	0.00275901
2.19978	943.012	8020.57	60.4877	251.264	245.615	6.33885	19.145	0.979123	0.000289942	0.00230843	0.000755957	0.00304023
2.20978	956.047	8463.5	60.8422	248.503	241.782	5.86872	21.7102	0.890629	0.000328955	0.00190408	0.000690786	0.00331539
2.21978	939.052	8500.15	60.1198	232.82	228.117	5.30924	23.6323	0.76855	0.000558015	0.00150714	0.000616415	0.00357714
2.22978	891.665	8120.02	58.375	205.678	205.765	4.72045	24.8341	0.626767	0.00101554	0.00115055	0.000535292	0.00381767
2.23978	817.573	7352.96	55.6853	169.792	176.622	4.17622	25.3247	0.481097	0.00172954	0.000864913	0.000450492	0.00402904
2.24977	724.404	6268.27	52.1493	128.9	143.159	3.76025	25.1991	0.3477	0.00271405	0.000676325	0.000365517	0.00420344
2.25977	623.085	4969.21	47.8892	87.4511	108.215	3.56078	24.6267	0.241415	0.00396644	0.000604607	0.00028406	0.00433361
2.26977	527.054	3585.06	43.0558	50.2031	74.7503	3.66386	23.8331	0.174233	0.00546589	0.000661907	0.0002097	0.00441315
2.27977	450.91	2259.37	37.8395	21.778	45.5793	4.14504	23.0758	0.154095	0.00717323	0.000851857	0.000145614	0.0044371
2.28977	409.129	1137.5	32.4712	6.21838	23.1207	5.06155	22.6162	0.18404	0.00903223	0.0011693	9.43218e-05	0.00440215
2.29977	414.59	352.499	27.2277	6.56364	9.18397	6.44398	22.689	0.261905	0.010972	0.00160059	5.74413e-05	0.00430714
2.30977	477.201	12.2627	22.4242	24.5112	4.80243	8.28906	23.4767	0.38049	0.0129117	0.00212453	3.55458e-05	0.00415325
2.31977	602.672	187.998	18.4016	60.178	10.1371	10.5547	25.0854	0.528291	0.0147647	0.00271369	2.81079e-05	0.00394426
2.32977	791.679	905.723	15.5049	112	24.4575	13.157	27.5284	0.690626	0.0164445	0.00333623	3.3528e-05	0.00368651
2.33977	1039.35	2141.59	14.0519	176.779	46.2019	15.9713	30.7197	0.851138	0.017871	0.00395797	4.92753e-05	0.00338869
2.34976	1335.29	3821.49	14.2975	249.883	73.1141	18.8359	34.4758	0.99345	0.018976	0.00454459	7.21211e-05	0.00306176
2.35976	1664.11	5825.49	16.399	325.613	102.443	21.5612	38.5265	1.1029	0.0197086	0.00506386	9.84382e-05	0.00271841
2.36976	2006.42	7996.78	20.3819	397.659	131.193	23.9405	42.5391	1.16808	0.0200389	0.00548768	0.000124559	0.00237247
2.37976	2340.37	10154.7	26.1196	459.698	156.404	25.7669	46.1446	1.18219	0.0199614	0.00579379	0.000147147	0.00203839
2.38976	2643.63	12111.1	33.3267	506.008	175.427	26.85	48.9714	1.14379	0.0194959	0.00596731	0.000163554	0.00173036
2.39976	2895.61	13688.2	41.5788	532.117	186.198	27.0363	50.6822	1.05724	0.0186868	0.00600127	0.000172139	0.00146173
2.40976	3079.84	14737.9	50.354	535.381	187.447	26.2272	51.0092	0.932444	0.0176016	0.00589745	0.00017251	0.00124416
2.41976	3186.53	15159	59.1032	515.492	178.869	24.3978	49.7822	0.784105	0.0163263	0.00566575	0.000165631	0.00108696
2.42976	3214.75	14912.9	67.3512	474.824	161.202	21.6118	46.9552	0.630436	0.0149603	0.00532372	0.000153887	0.000996612
2.43976	3174.56	14035	74.8101	418.618	136.232	18.0308	42.6177	0.491572	0.0136109	0.00489523	0.000140929	0.000976305
2.44975	3088.47	12640.7	81.5168	354.959	106.698	13.919	36.9988	0.387649	0.0123855	0.00440896	0.000131476	0.00102574
2.45975	2992.15	10925.7	87.9619	294.502	76.1392	9.63941	30.4572	0.336885	0.0113854	0.00389647	0.000130975	0.00114106
2.46975	2934.66	9160.41	95.2115	250.047	48.6438	5.64412	23.4605	0.353726	0.0106988	0.0033903	0.000145166	0.00131503
2.47975	2977.52	7676.66	105.007	235.868	28.5706	2.45542	16.555	0.447312	0.0103953	0.00292175	0.000179628	0.00153742
2.48975	3192.98	6850.37	119.811	266.875	20.2223	0.640839	10.3252	0.620343	0.0105211	0.00251923	0.000239282	0.00179557
2.49975	3661.18	7077.86	142.803	357.707	27.5199	0.781363	5.35098	0.868513	0.0110958	0.00220643	0.000327916	0.00207506
2.50975	4466.84	8749.77	177.812	521.712	53.6928	3.43554	2.16134	1.18054	0.0121113	0.00200096	0.000447772	0.0023605
2.51975	5694.38	12222.9	229.168	769.94	101.008	9.10171	1.19107	1.53889	0.0135319	0.00191353	0.000599252	0.00263647
2.52975	7423.36	17792	301.494	1110.28	170.559	18.1789	2.74314	1.92092	0.0152967	0.00194744	0.000780692	0.00288833
2.53975	9722.95	25664.5	399.405	1546.58	262.14	30.9325	6.95969	2.30075	0.0173231	0.00209861	0.000988323	0.00310312
2.54974	12646.2	35938.4	527.177	2078.13	374.19	47.4634	13.8047	2.65122	0.0195119	0.00235615	0.00121636	0.00327025
2.55974	16225	48586.7	688.364	2699.27	503.849	67.6858	23.0599	2.94623	0.0217534	0.00270313	0.00145724	0.00338215
2.56974	20465.7	63448.4	885.417	3399.29	647.078	91.3143	34.3338	3.16291	0.023934	0.00311795	0.00170196	0.00343463
2.57974	25344.4	80226.5	1119.31	4162.72	798.883	117.864	47.0848	3.28366	0.0259424	0.0035758	0.00194062	0.00342719
2.58974	30805.4	98499.4	1389.2	4969.67	953.582	146.66	60.6546	3.29774	0.0276768	0.00405026	0.00216292	0.00336288
2.59974	36759.4	117732	1692.22	5796.76	1105.13	176.858	74.3123	3.20233	0.02905	0.00451503	0.00235878	0.00324823
2.60974	43084.1	137301	2023.31	6618.12	1247.43	207.484	87.3024	3.00305	0.029994	0.00494559	0.00251897	0.00309267
2.61974	49627.3	156524	2375.21	7406.34	1374.75	237.475	98.8976	2.71356	0.0304641	0.00532043	0.00263557	0.00290807
2.62974	56210.8	174695	2738.63	8134.1	1481.96	265.731	108.446	2.35471	0.0304398	0.00562224	0.00270265	0.0027079
2.63974	62636.8	191117	3102.53	8775.27	1564.84	291.167	115.419	1.95296	0.029925	0.00583894	0.00271637	0.00250641
2.64973	68695.1	205142	3454.5	9306.22	1620.33	312.781	119.438	1.53833	0.0289482	0.0059638	0.00267546	0.00231777
2.65973	74173.1	216206	3781.41	9707.22	1646.61	329.693	120.308	1.14207	0.0275588	0.00599568	0.00258124	0.00215526
2.66973	78865.5	223854	4069.94	9963.25	1643.22	341.21	118.021	0.794095	0.0258233	0.00593875	0.00243749	0.00203044
2.67973	82584.3	227775	4307.49	10064.7	1611.04	346.853	112.755	0.520654	0.0238225	0.00580174	0.00225037	0.00195248
2.68973	85168.4	227806	4482.76	10008.1	1552.13	346.394	104.856	0.342131	0.0216443	0.0055972	0.00202797	0.00192774
2.69973	86494.1	223952	4586.53	9796.05	1469.66	339.863	94.8114	0.271398	0.0193799	0.00534033	0.00177996	0.00195941
2.70973	86481.9	216379	4612.28	9437.25	1367.63	327.556	83.2113	0.312727	0.0171185	0.00504784	0.00151704	0.00204746
2.71973	85103.8	205406	4556.71	8945.82	1250.68	310.013	70.703	0.461418	0.0149426	0.00473674	0.00125027	0.0021887
2.72973	82384.3	191484	4420.06	8340.74	1123.72	287.99	57.9475	0.70415	0.0129242	0.00442321	0.000990683	0.00237726
2.73973	78403.4	175178	4206.27	7644.77	991.768	262.422	45.5714	1.02004	0.0111216	0.00412171	0.000748563	0.00260485
2.74972	73293.1	157131	3922.88	6883.22	859.59	234.363	34.1276	1.38232	0.00957785	0.00384411	0.000533045	0.00286163
2.75972	67233.4	138028	3580.75	6082.78	731.534	204.937	24.0611	1.76051	0.00831912	0.00359914	0.000351639	0.0031368
2.76972	60442.4	118568	3193.56	5270.18	611.313	175.273	15.686	2.12289	0.00735526	0.00339222	0.000209961	0.00341946
2.77972	53168.9	99416.7	2777.07	4470.95	501.874	146.444	9.17274	2.43902	0.00668066	0.00322536	0.000111497	0.00369934
2.78972	45677.5	81187	2348.35	3708.22	405.332	119.415	4.54876	2.68237	0.00627587	0.00309739	5.75829e-05	0.00396737
2.79972	38237.1	64403.9	1924.8	3001.76	322.922	94.9936	1.70878	2.83235	0.0061102	0.00300444	4.73806e-05	0.0042165
2.80972	31106.2	49483.3	1523.22	2367.31	255.052	73.796	0.436002	2.87609	0.00614445	0.00294051	7.80792e-05	0.0044419
2.81972	24520.8	36719.7	1158.85	1815.97	201.366	56.2219	0.430312	2.80938	0.0063338	0.00289816	0.000145116	0.00464131
2.82972	18681.2	26278.2	844.552	1354.15	160.862	42.4489	1.34158	2.6372	0.0066308	0.00286921	0.000242515	0.00481497
2.83972	13743.2	18196.6	590.08	983.529	132.033	32.4351	2.80458	2.37319	0.00698857	0.00284545	0.000363233	0.00496555
2.84971	9810	12392.8	401.607	701.399	113.028	25.9382	4.4725	2.03867	0.00736271	0.00281928	0.000499606	0.00509768
2.85971	6928.13	8680.27	281.444	501.246	101.8	22.5477	6.04617	1.66084	0.00771381	0.00278426	0.000643683	0.00521752
2.86971	5087.18	6788.57	227.989	373.472	96.2696	21.7223	7.29673	1.27074	0.00800899	0.00273537	0.000787694	0.00533202
2.87971	4222.2	6386.52	235.971	306.235	94.4495	22.8368	8.07998	0.900596	0.00822263	0.00266932	0.000924362	0.00544823
2.88971	4219.66	7107.83	296.887	286.372	94.5628	25.2298	8.34138	0.581362	0.00833723	0.00258453	0.00104719	0.0055725
2.89971	4926.45	8576.9	399.637	300.309	95.1214	28.2517	8.11232	0.340204	0.0083431	0.00248115	0.00115075	0.00570982
2.90971	6161.1	10432.7	531.344	334.913	94.9785	31.307	7.49777	0.198315	0.00823817	0.0023606	0.00123083	0.00586313
2.91971	7726.28	12350.2	678.229	378.257	93.3493	33.8914	6.6569	0.169241	0.00802713	0.00222556	0.00128458	0.00603288
2.92971	9422.3	14056.6	826.54	420.206	89.8029	35.6188	5.78001	0.257772	0.00772023	0.0020794	0.00131045	0.00621662
2.93971	11060	15343.4	963.445	452.841	84.2307	36.2371	5.06264	0.459538	0.00733239	0.00192594	0.0013083	0.00640904
2.9497	12472.8	16072.8	1077.83	470.701	76.7971	35.6342	4.68065	0.761337	0.0068816	0.00176903	0.00127923	0.00660207
2.9597	13526.4	16178.4	1160.94	470.811	67.8724	33.8308	4.76846	1.14215	0.00638784	0.00161233	0.00122546	0.00678506
2.9697	14125.9	15660.4	1206.85	452.559	57.9678	30.9659	5.40216	1.57469	0.00587172	0.00145904	0.00115019	0.0069456
2.9797	14220.6	14578.1	1212.7	417.398	47.6608	27.2718	6.59003	2.02761	0.00535348	0.00131182	0.0010574	0.00707008
2.9897	13804.4	13036.5	1178.73	368.438	37.5335	23.045	8.27023	2.46776	0.00485184	0.00117276	0.000951633	0.00714463
2.9997	12913.4	11172.7	1108.03	309.959	28.1142	18.6135	10.3164	2.86279	0.00438349	0.00104334	0.000837767	0.00715615
3.0097	11620.6	9140.69	1006.21	246.88	19.8362	14.3038	12.5509	3.18356	0.00396224	0.00092466	0.000720785	0.00709316
3.0197	10028.1	7095.76	880.776	184.247	13.0067	10.4113	14.7628	3.40631	0.00359874	0.000817488	0.000605589	0.00694682
3.0297	8256.96	5181.21	740.495	126.756	7.79461	7.17457	16.7307	3.51448	0.0033001	0.000722442	0.000496791	0.00671177
3.0397	6436.82	3516.9	594.656	78.3521	4.22785	4.75718	18.2469	3.49979	0.00307008	0.00064013	0.000398525	0.00638662
3.04969	4694.46	2190.98	452.35	41.9349	2.20702	3.23733	19.1398	3.36297	0.00290891	0.000571233	0.000314304	0.00597465
3.05969	3143.92	1255.03	321.769	19.1881	1.52624	2.60622	19.2948	3.11354	0.00281359	0.000516636	0.000246876	0.00548365
3.06969	1877.32	722.666	209.682	10.5121	1.90235	2.77391	18.6685	2.76911	0.0027783	0.000477313	0.000198154	0.00492598
3.07969	958.645	571.719	120.977	15.0887	3.00702	3.58368	17.2961	2.35408	0.00279479	0.00045436	0.000169149	0.00431819
3.08969	419.468	749.206	58.4261	31.0381	4.50005	4.83052	15.2928	1.89775	0.00285282	0.000448807	0.000159929	0.00368018
3.09969	257.974	1178.7	22.616	55.66	6.06073	6.28446	12.8451	1.43228	0.00294086	0.000461487	0.000169651	0.00303446
3.10969	440.724	1769.14	12.0495	85.7238	7.41386	7.7147	10.1966	0.990332	0.00304655	0.000492878	0.000196601	0.00240484
3.11969	907.083	2424.25	23.4196	117.788	8.35077	8.91287	7.62715	0.602762	0.00315745	0.000542907	0.000238298	0.00181533
3.12969	1575.81	3051.89	52.0095	148.514	8.74248	9.71313	5.42782	0.296508	0.00326152	0.000610806	0.00029159	0.00128879
3.13969	2353.24	3572.04	92.1831	174.945	8.54441	10.0075	3.87431	0.0927735	0.00334779	0.000695061	0.000352793	0.000845625
3.14968	3142.26	3923.59	137.921	194.74	7.79496	9.75453	3.20095	0.00564144	0.00340677	0.000793403	0.00041792	0.000502639
3.15968	3851.32	4068.53	183.357	206.326	6.60567	8.98181	3.57763	0.0412307	0.00343089	0.000902827	0.000482827	0.000272024
3.16968	4402.46	3993.91	223.265	208.989	5.14692	7.78039	5.09192	0.197422	0.00341478	0.00101981	0.000543419	0.000160605
3.17968	4738.08	3711.47	253.458	202.866	3.62879	6.29421	7.73833	0.464147	0.00335553	0.00114052	0.00059587	0.000169386
3.18968	4825.5	3254.78	271.082	188.879	2.27943	4.70295	11.4154	0.824218	0.00325262	0.00126106	0.000636827	0.000293414
3.19968	4659.06	2674.62	274.757	168.592	1.32304	3.2026	15.9309	1.25463	0.00310787	0.00137786	0.000663579	0.00052202
3.20968	4259.7	2032.95	264.597	144.027	0.958595	1.98388	21.0158	1.72815	0.00292525	0.00148791	0.000674195	0.00083932
3.21968	3671.88	1396.09	242.078	117.446	1.34137	1.21152	26.3447	2.21527	0.00271054	0.00158916	0.000667705	0.00122518
3.22968	2958.67	827.955	209.801	91.1401	2.56818	1.00619	31.5611	2.68609	0.00247089	0.00168063	0.000644093	0.00165624
3.23968	2194.71	383.658	171.163	67.2086	4.6678	1.43081	36.3061	3.1123	0.0022144	0.00176257	0.000604371	0.00210731
3.24967	1458.59	104.278	129.973	47.3891	7.59646	2.483	40.2481	3.46883	0.00194958	0.00183655	0.000550554	0.00255281
3.25967	824.784	13.2449	90.0496	32.9198	11.2399	4.09345	43.1094	3.73548	0.00168486	0.00190525	0.000485553	0.00296815
3.26967	356.074	114.5	54.8515	24.4578	15.4201	6.1319	44.6891	3.89779	0.00142813	0.00197227	0.00041303	0.00333123
3.27967	97.3937	392.606	27.1446	22.0597	19.9076	8.41897	44.8804	3.94806	0.00118644	0.00204183	0.000337251	0.00362361
3.28967	71.3195	814.771	8.77382	25.2137	24.4377	10.7428	43.6781	3.88527	0.000965633	0.0021182	0.000262818	0.00383153
3.29967	275.987	1334.41	0.52366	32.9238	28.7302	12.881	41.1794	3.71507	0.000770219	0.00220536	0.000194443	0.00394663
3.30967	685.379	1896.08	2.09708	43.8329	32.5095	14.6216	37.5764	3.44915	0.000603272	0.00230643	0.000136653	0.00396624
3.31967	1252.12	2441.08	12.2012	56.3735	35.5258	15.7865	33.1384	3.10431	0.000466515	0.00242322	9.35323e-05	0.00389345
3.32967	1912.39	2913.27	28.7308	68.9261	37.5738	16.2499	28.1909	2.7012	0.000360456	0.00255584	6.8447e-05	0.00373665
3.33967	2592.56	3264.53	49.028	79.9799	38.5101	15.9539	23.0879	2.263	0.000284564	0.00270241	6.38243e-05	0.00350885
3.34966	3216.85	3459.46	70.1859	88.2629	38.2636	14.9168	18.1832	1.81393	0.000237545	0.00285905	8.09751e-05	0.00322664
3.35966	3715.36	3478.68	89.372	92.8582	36.8433	13.2355	13.8019	1.37773	0.000217592	0.00301985	0.000119959	0.00290901
3.36966	4031.48	3320.63	104.13	93.2658	34.3379	11.0789	10.2145	0.976352	0.000222649	0.00317718	0.000179536	0.0025759
3.37966	4128.07	3001.62	112.637	89.4305	30.9117	8.6761	7.61592	0.628724	0.000250572	0.00332207	0.000257194	0.00224687
3.38966	3991.86	2554.1	113.887	81.7281	26.7925	6.29654	6.11216	0.349776	0.000299286	0.00344484	0.000349256	0.00193972
3.39966	3635.27	2023.54	107.785	70.9044	22.2555	4.22669	5.71321	0.149736	0.000366817	0.00353576	0.000451091	0.00166937
3.40966	3095.71	1463.95	95.141	57.9893	17.6033	2.74381	6.33582	0.0337405	0.000451288	0.00358578	0.000557307	0.00144686
3.41966	2432.47	932.622	77.5737	44.1833	13.1424	2.08959	7.81325	0.00173475	0.000550789	0.00358732	0.000662198	0.00127873
3.42966	1720.73	484.525	57.3239	30.7385	9.16104	2.44564	9.912	0.0486757	0.000663253	0.00353483	0.000759956	0.00116678
3.43966	1044.39	167.021	37.0032	18.8344	5.90563	3.91411	12.3549	0.165026	0.000786248	0.00342556	0.000845207	0.00110816
3.44965	487.271	15.1125	19.3071	9.47177	3.56203	6.50395	14.8459	0.337468	0.00091682	0.00325974	0.00091332	0.00109576
3.45965	124.269	47.9984	6.71445	3.38269	2.24063	10.1254	17.0977	0.549824	0.00105131	0.00304089	0.000960815	0.00111904
3.46965	12.9659	267.006	1.21149	0.974365	1.968	14.5937	18.8563	0.784124	0.00118534	0.00277569	0.000985662	0.00116503
3.47965	186.79	655.225	4.06301	2.30167	2.68443	19.64	19.9236	1.02173	0.00131377	0.00247371	0.000987523	0.00121955
3.48965	650.348	1178.9	15.6585	7.07643	4.24974	24.9317	20.1739	1.24451	0.00143085	0.00214694	0.00096794	0.00126848
3.49965	1377.53	1790.43	35.4477	14.7067	6.45535	30.0979	19.5633	1.43596	0.00153047	0.00180895	0.000930321	0.001299
3.50965	2312.76	2432.66	61.9723	24.363	9.04248	34.7605	18.1321	1.58219	0.00160653	0.00147416	0.000879894	0.00130075
3.51965	3375.24	3044.27	92.9957	35.0637	11.7251	38.5652	15.9994	1.67283	0.00165337	0.00115683	0.000823466	0.00126677
3.52965	4466.19	3565.55	125.715	45.7688	14.2157	41.2137	13.3513	1.70171	0.00166632	0.000870113	0.000769118	0.001194
3.53965	5478.1	3944.29	157.036	55.4791	16.2514	42.4902	10.422	1.66722	0.00164225	0.000625251	0.000725738	0.00108364
3.54964	6305.79	4140.91	183.886	63.323	17.6185	42.2835	7.4725	1.57253	0.00158011	0.00043071	0.000702507	0.000941047
3.55964	6857.44	4132.74	203.539	68.6299	18.1728	40.5982	4.76546	1.42544	0.00148139	0.000291782	0.000708325	0.00077518
3.56964	7065.35	3916.82	213.904	70.9817	17.8543	37.5576	2.54193	1.23795	0.0013505	0.000210148	0.000751169	0.000597852
3.57964	6894.68	3510.73	213.774	70.2403	16.694	33.3979	0.998973	1.02562	0.00119492	0.000183945	0.000837532	0.000422649
3.58964	6349.88	2952.03	202.977	66.5435	14.8124	28.4489	0.27245	0.806539	0.00102528	0.000207947	0.00097189	0.000263663
3.59964	5476.76	2295.21	182.455	60.285	12.4098	23.108	0.424797	0.600291	0.000855077	0.000274082	0.00115616	0.000134165
3.60964	4361.6	1607.63	154.204	52.0648	9.74807	17.8075	1.44004	0.426606	0.000700274	0.000372174	0.00138949	4.53391e-05
3.61964	3125.65	963.718	121.14	42.6243	7.12681	12.9768	3.22557	0.30402	0.000578687	0.000490787	0.00166805	5.161e-06
3.62964	1915.76	438.502	86.8423	32.7781	4.85357	9.00446	5.6208	0.248535	0.00050916	0.000618221	0.00198499	1.75197e-05
3.63964	891.968	100.782	55.2535	23.3359	3.21373	6.20197	8.41183	0.272359	0.000510585	0.000743494	0.00233073	8.17034e-05
3.64963	212.963	6.6741	30.3053	15.0316	2.44014	4.77369	11.3507	0.382834	0.00060093	0.000857246	0.00269324	0.000192292
3.65963	20.3964	193.944	15.5515	8.46478	2.68734	4.79555	14.1774	0.581649	0.000796115	0.000952517	0.00305869	0.000339439
3.66963	423.904	677.816	13.8138	4.05332	4.01228	6.20417	16.6431	0.864351	0.00110903	0.0010253	0.00341207	0.000509654
3.67963	1487.89	1448.6	26.8888	2.00853	6.36385	8.7985	18.5315	1.22028	0.00154867	0.00107485	0.00373806	0.000686818
3.68963	3221.92	2471.4	55.3396	2.32659	9.58267	12.2549	19.6778	1.63286	0.00211941	0.00110367	0.00402182	0.000853662
3.69963	5575.53	3688.1	98.3974	4.80056	13.4131	16.1541	19.9829	2.08047	0.00282046	0.00111726	0.00425002	0.000993261
3.70963	8438.29	5021.56	153.981	9.04879	17.5247	20.0186	19.4214	2.53749	0.00364569	0.00112354	0.0044116	0.00109074
3.71963	11646.3	6381.44	218.849	14.5574	21.5446	23.3586	18.0431	2.97592	0.00458371	0.00113208	0.00449841	0.00113473
3.72963	14993.6	7671.99	288.858	20.7287	25.0967	25.723	15.969	3.36713	0.00561812	0.00115318	0.00450625	0.00111878
3.73963	18249.4	8800.48	359.322	26.9374	27.8449	26.7486	13.3798	3.68387	0.00672822	0.00119678	0.00443469	0.00104229
3.74962	21179.4	9685.83	425.44	32.5831	29.5369	26.2091	10.5	3.90217	0.00788981	0.00127152	0.00428784	0.000911071
3.75962	23568.9	10266.8	482.748	37.1373	30.0472	24.0539	7.5794	4.00338	0.00907606	0.00138374	0.00407411	0.00073736
3.76962	25248.4	10509.9	527.574	40.1861	29.4058	20.4354	4.87037	3.9758	0.010259	0.00153675	0.00380583	0.000539318
3.77962	26114.5	10414.2	557.433	41.4557	27.8257	15.7235	2.60819	3.816	0.0114103	0.00173025	0.00349904	0.000339913
3.78962	26151.7	10014.9	571.344	40.8321	25.7089	10.5015	0.99055	3.52966	0.012503	0.0019602	0.00317256	0.000165505
3.79962	25445	9383.67	570.021	38.3653	23.6393	5.54572	0.162103	3.13191	0.013512	0.00221875	0.00284736	4.38425e-05
3.80962	24186.9	8626.8	555.935	34.2655	22.3606	1.78769	0.203036	2.64689	0.0144156	0.0024948	0.0025454	1.95966e-06
3.81962	22677	7880.11	533.234	28.888	22.736	0.261641	1.12349	2.10692	0.015196	0.00277471	0.00228871	6.39546e-05
3.82962	21310.5	7300.92	507.479	22.7136	25.6951	2.03914	2.86384	1.55085	0.0158398	0.00304304	0.0020983	0.00024883
3.83962	20560.2	7058.96	485.299	16.3221	32.1701	8.15627	5.30073	1.02201	0.0163385	0.00328392	0.00199325	0.000568628
3.84961	20948.1	7324.79	473.896	10.3672	43.0262	19.5373	8.2582	0.565712	0.0166887	0.00348225	0.00198975	0.00102695
3.85961	23012.6	8258.03	480.475	5.54606	58.9878	36.9207	11.5229	0.226446	0.0168917	0.00362476	0.00210055	0.00161808
3.86961	27269.7	9994.89	511.694	2.57299	80.5707	60.791	14.8619	0.0450575	0.0169532	0.00370123	0.00233421	0.00232672
3.87961	34173.1	12637.7	573.068	2.15097	108.024	91.3253	18.0415	0.0559536	0.0168826	0.00370559	0.00269506	0.00312843
3.88961	44073.2	16244.6	668.445	4.94573	141.285	128.356	20.8454	0.284622	0.0166925	0.0036363	0.00318294	0.00399072
3.89961	57184.3	20823.3	799.643	11.5593	179.95	171.351	23.091	0.745595	0.0163982	0.0034969	0.00379339	0.00487499
3.90961	73551.1	26326.1	966.12	22.5027	223.271	219.418	24.642	1.441	0.0160161	0.00329593	0.004518	0.00573856
3.91961	93034	32649.7	1164.92	38.1697	270.167	271.334	25.4169	2.35988	0.0155635	0.00304652	0.00534494	0.00653752
3.92961	115295	39637.1	1390.66	58.8057	319.277	325.59	25.3929	3.47828	0.0150579	0.00276577	0.00625933	0.00722976
3.93961	139806	47083.7	1635.84	84.4848	368.996	380.459	24.6036	4.76009	0.0145158	0.00247365	0.00724434	0.00777748
3.9496	165862	54746.6	1891.2	115.078	417.574	434.08	23.1341	6.15874	0.0139527	0.00219162	0.00828153	0.00814999
3.9596	192609	62356.4	2146.24	150.233	463.198	484.549	21.1102	7.61948	0.0133822	0.00194154	0.00935168	0.00832605
3.9696	219085	69629.8	2389.82	189.355	504.077	530.019	18.6859	9.08244	0.0128163	0.00174395	0.0104353	0.0082953
3.9796	244274	76285.9	2610.91	231.6	538.564	568.794	16.0297	10.4857	0.0122645	0.00161687	0.0115134	0.00805918
3.9896	267146	82058	2799.21	275.878	565.23	599.42	13.3089	11.7686	0.0117344	0.00157442	0.0125675	0.00763107
3.9996	286729	86713	2945.81	320.872	582.946	620.759	10.6775	12.8755	0.0112313	0.00162604	0.0135803	0.0070355
4.0096	302156	90057.7	3043.67	365.076	590.958	632.055	8.26377	13.7584	0.0107589	0.00177566	0.0145356	0.00630655
4.0196	312720	91953.8	3088.2	406.844	588.918	632.965	6.16279	14.3801	0.0103189	0.00202149	0.0154186	0.0054858
4.0296	317911	92322.7	3077.35	444.468	576.908	623.567	4.43176	14.7157	0.00991177	0.00235615	0.0162154	0.0046193
4.0396	317459	91151.5	3011.85	476.255	555.444	604.372	3.08931	14.7538	0.00953677	0.00276707	0.0169136	0.00375462
4.04959	311338	88490.6	2895.07	500.627	525.418	576.263	2.1188	14.4976	0.00919223	0.00323732	0.017502	0.00293771
4.05959	299785	84453.1	2732.76	516.226	488.082	540.466	1.47429	13.9637	0.00887585	0.00374678	0.0179699	0.00220961
4.06959	283281	79206.4	2532.72	522.005	444.944	498.471	1.08941	13.1812	0.00858488	0.00427331	0.0183084	0.00160377
4.07959	262517	72964.1	2304.23	517.325	397.703	451.94	0.887256	12.1897	0.0083163	0.00479434	0.0185095	0.00114397
4.08959	238375	65973.4	2057.48	502.02	348.148	402.63	0.790758	11.0368	0.00806704	0.00528816	0.0185667	0.000842698
4.09959	211862	58502.4	1803.02	476.448	298.066	352.293	0.732318	9.7749	0.00783392	0.00573549	0.0184748	0.000700612
4.10959	184061	50825.3	1550.98	441.509	249.147	302.596	0.661644	8.45859	0.00761367	0.00612038	0.0182309	0.000706749
4.11959	156071	43209.2	1310.7	398.625	202.906	255.033	0.551252	7.14103	0.00740315	0.0064314	0.0178346	0.000839693
4.12959	128945	35900.8	1090.09	349.685	160.617	210.872	0.398919	5.87126	0.00719932	0.00666223	0.0172878	0.00106942
4.13959	103634	29115.8	895.335	296.954	123.262	171.098	0.22717	4.6918	0.006999	0.00681174	0.0165959	0.00135992
4.14958	80940.7	23029	730.661	242.958	91.503	136.391	0.0796646	3.63653	0.00679926	0.00688428	0.0157675	0.00167213
4.15958	61482.1	17768.4	598.214	190.331	65.6749	107.12	0.0152345	2.72949	0.00659709	0.00688886	0.014815	0.00196723
4.16958	45662	13412.3	498.121	141.661	45.7963	83.344	0.0999569	1.98429	0.00638957	0.00683865	0.0137539	0.00220979
4.17958	33660.1	9988.11	428.675	99.3226	31.602	64.852	0.39835	1.40421	0.00617403	0.00674995	0.0126038	0.00237067
4.18958	25437.2	7475.58	386.605	65.3226	22.5855	51.1978	0.964488	0.982969	0.00594813	0.0066409	0.0113866	0.00242958
4.19958	20749	5811.8	367.453	41.1619	18.0559	41.757	1.83407	0.706137	0.00570968	0.00653041	0.0101273	0.00237669
4.20958	19177	4898.37	365.986	27.7334	17.199	35.7852	3.01816	0.552926	0.0054572	0.00643657	0.00885215	0.00221362
4.21958	20165.8	4610.37	376.621	25.2545	19.14	32.4786	4.49944	0.498258	0.00518969	0.00637572	0.00758839	0.00195344
4.22958	23067.7	4805.94	393.851	33.2502	23.0027	31.0342	6.23113	0.514979	0.00490709	0.00636105	0.00636305	0.00161976
4.23958	27192.1	5336.38	412.604	50.5811	27.9637	30.7013	8.13889	0.576017	0.00461019	0.00640201	0.00520166	0.00124509
4.24957	31853.4	6055.62	428.547	75.5219	33.2927	30.8256	10.1257	0.656313	0.00430067	0.00650353	0.00412752	0.000868277
4.25957	36415.3	6828.92	438.317	105.883	38.3869	30.8799	12.0788	0.73444	0.00398148	0.00666569	0.00316041	0.000531545
4.26957	40329.8	7539.9	439.627	139.166	42.7854	30.4827	13.8787	0.793772	0.00365654	0.00688386	0.00231593	0.000277289
4.27957	43168.3	8095.91	431.305	172.738	46.1769	29.4044	15.4086	0.823123	0.00333066	0.00714885	0.00160473	0.000144558
4.28957	44638.5	8431.27	413.242	204.026	48.3917	27.5604	16.5645	0.816966	0.00300965	0.00744745	0.00103215	0.000165974
4.29957	44595.5	8508.53	386.246	230.695	49.3872	24.9935	17.2641	0.775069	0.00269983	0.0077634	0.000598033	0.000364967
4.30957	43036.8	8317.62	351.872	250.812	49.2242	21.8487	17.4538	0.701791	0.00240788	0.00807818	0.000296967	0.000753613
4.31957	40090.6	7873.15	312.186	262.979	48.0389	18.3426	17.1136	0.604999	0.00214046	0.00837208	0.000118637	0.00133137
4.32957	35993.8	7210.52	269.528	266.424	46.0163	14.7303	16.26	0.494808	0.00190386	0.00862561	4.85433e-05	0.00208463
4.33957	31062.7	6380.59	226.28	261.042	43.3618	11.2724	14.9438	0.382229	0.00170342	0.00882023	6.8946e-05	0.00298723
4.34957	25662.4	5444.06	184.659	247.375	40.2771	8.20573	13.2477	0.277869	0.00154339	0.0089396	0.000159893	0.00400187
4.35956	20171.1	4465.39	146.546	226.561	36.9449	5.72051	11.2796	0.190793	0.00142619	0.00897039	0.000300388	0.00508232
4.36956	14949.8	3507.3	113.365	200.218	33.5142	3.94272	9.16428	0.127609	0.00135247	0.00890311	0.000469562	0.00617635
4.37956	10312.7	2625.88	86.018	170.303	30.0973	2.92572	7.03442	0.0919239	0.00132067	0.00873243	0.000647766	0.00722879
4.38956	6504.9	1866.43	64.8747	138.944	26.7701	2.6497	5.02055	0.0841039	0.00132704	0.00845749	0.000817584	0.00818539
4.39956	3687.25	1260.91	49.8007	108.266	23.5763	3.02807	3.24161	0.10143	0.00136563	0.00808198	0.000964572	0.00899612
4.40956	1928.76	826.423	40.2409	80.2139	20.5407	3.92067	1.79698	0.138535	0.00142868	0.00761382	0.00107787	0.00961811
4.41956	1207.84	565.143	35.3157	56.4078	17.6762	5.15086	0.759864	0.188138	0.00150686	0.00706481	0.00115045	0.0100186
4.42956	1420.6	465.413	33.945	38.0208	14.9976	6.5254	0.173448	0.241941	0.00158991	0.00644992	0.00117923	0.0101771
4.43956	2395.47	503.921	34.9681	25.7046	12.5295	7.85482	0.049295	0.291602	0.00166723	0.00578667	0.00116476	0.010086
4.44955	3913.1	648.693	37.2576	19.5583	10.3137	8.97211	0.368542	0.329689	0.00172876	0.00509412	0.00111082	0.00975152
4.45955	5728.73	862.467	39.8155	19.1495	8.41032	9.74786	1.08529	0.350548	0.00176568	0.0043919	0.00102385	0.00919274
4.46955	7595.2	1106.41	41.8417	23.5805	6.89732	10.1014	2.13208	0.350926	0.00177116	0.00369956	0.000912085	0.00844035
4.47955	9285.17	1343.49	42.7781	31.5932	5.86288	10.0055	3.42655	0.330383	0.00174125	0.00303539	0.000784828	0.00753433
4.48955	10609.5	1541.64	42.3189	41.7031	5.39706	9.48641	4.87897	0.291375	0.00167514	0.00241579	0.000651572	0.00652182
4.49955	11431.9	1676.16	40.3982	52.3492	5.57921	8.61797	6.39975	0.239053	0.00157574	0.00185462	0.00052132	0.0054537
4.50955	11677.5	1731.32	37.152	62.0465	6.46605	7.51093	7.90612	0.18078	0.00144967	0.00136251	0.00040186	0.00438143
4.51955	11334.9	1701.09	32.8685	69.5211	8.0791	6.2996	9.3275	0.125406	0.00130718	0.000946708	0.000299346	0.00335432
4.52955	10453.7	1588.9	27.9289	73.8305	10.3957	5.12601	10.61	0.0824057	0.0011616	0.000610837	0.000217936	0.00241656
4.53955	9135.04	1406.74	22.7442	74.4361	13.3419	4.124	11.7176	0.0608838	0.00102863	0.000354995	0.000159722	0.00160479
4.54954	7519.07	1173.37	17.7047	71.2432	16.7923	3.40472	12.6325	0.0686684	0.000925411	0.000175924	0.000124756	0.000946639
4.55954	5768.85	912.085	13.1346	64.593	20.5726	3.04514	13.3537	0.111432	0.000869274	6.748e-05	0.000111298	0.000459387
4.56954	4053.07	648.251	9.26348	55.2074	24.4685	3.07984	13.8933	0.19205	0.000876493	2.1131e-05	0.000116185	0.000149831
4.57954	2529.25	406.607	6.21472	44.1067	28.2397	3.49796	14.2724	0.310152	0.000960954	2.66278e-05	0.000135252	1.45075e-05
4.58954	1328.67	208.985	4.00655	32.4866	31.6372	4.24469	14.5166	0.462016	0.00113292	7.27176e-05	0.000163846	4.06935e-05
4.59954	544.615	72.2269	2.56866	21.5916	34.4205	5.22759	14.6512	0.640732	0.00139795	0.000147886	0.000197289	0.000207899
4.60954	224.61	6.71008	1.76691	12.5751	36.3803	6.32653	14.6971	0.836628	0.0017561	0.000241091	0.000231328	0.000489715
4.61954	367.655	15.5516	1.43423	6.37808	37.3555	7.40672	14.6683	1.03803	0.00220151	0.000342369	0.000262488	0.00085594
4.62954	926.074	94.495	1.40083	3.62804	37.2484	8.33318	14.5695	1.23213	0.00272228	0.000443458	0.000288282	0.00127475
4.63954	1812.06	232.521	1.52211	4.57201	36.0379	8.9855	14.3966	1.40603	0.00330101	0.000538119	0.000307348	0.00171473
4.64953	2907.77	413.051	1.69837	9.05088	33.7825	9.27099	14.1379	1.54775	0.00391551	0.0006224	0.000319411	0.0021468
4.65953	4078.23	615.704	1.88605	16.5155	30.6208	9.13526	13.7764	1.64731	0.00454011	0.00069471	0.000325169	0.00254567
4.66953	5185.59	818.319	2.09851	26.0855	26.7639	8.56908	13.2931	1.69743	0.00514727	0.000755629	0.000326077	0.00289092
4.67953	6103.01	999.177	2.39718	36.644	22.4808	7.61052	12.6716	1.69431	0.0057094	0.000807651	0.000323989	0.00316787
4.68953	6727.78	1139.1	2.87519	46.9565	18.0814	6.34309	11.9015	1.63785	0.00620068	0.000854689	0.000320905	0.00336744
4.69953	6991.06	1223.35	3.63547	55.8068	13.8918	4.88806	10.9817	1.53179	0.00659922	0.000901477	0.000318667	0.00348622
4.70953	6864.76	1243	4.76815	62.131	10.2305	3.3943	9.92376	1.38341	0.00688825	0.000953058	0.000318611	0.00352578
4.71953	6363.77	1195.89	6.32842	65.1388	7.38463	2.02396	8.75175	1.20299	0.00705816	0.00101395	0.000321449	0.00349184
4.72953	5544.17	1086.77	8.31996	64.4067	5.58637	0.937004	7.50332	1.00307	0.00710678	0.00108765	0.000327109	0.00339328
4.73953	4497.11	926.976	10.6858	59.94	4.99479	0.275377	6.22683	0.797415	0.00704035	0.00117608	0.000334746	0.00324112
4.74952	3339.59	733.267	13.3073	52.1809	5.68172	0.148563	4.97895	0.600005	0.00687297	0.00127921	0.000342845	0.0030473
4.75952	2202.41	526.347	16.0124	41.9805	7.62597	0.621413	3.81989	0.423951	0.0066256	0.00139483	0.000349403	0.00282387
4.76952	1216.68	328.811	18.5921	30.5213	10.713	1.70627	2.8083	0.280501	0.00632523	0.00151861	0.000352161	0.00258217
4.77952	500.612	163.031	20.8228	19.2036	14.743	3.35909	1.99628	0.178197	0.00600213	0.00164437	0.000348955	0.00233223
4.78952	147.188	48.9124	22.4919	9.50575	19.4445	5.4816	1.42424	0.122277	0.00568845	0.00176439	0.000337959	0.00208254
4.79952	214.492	1.90345	23.4227	2.82924	24.4949	7.9276	1.11672	0.114316	0.00541504	0.00187017	0.000318015	0.00183982
4.80952	719.158	31.3687	23.4991	0.347116	29.543	10.5142	1.07966	0.152175	0.00520927	0.00195316	0.000288852	0.00160919
4.81952	1634.01	139.47	22.6789	2.86929	34.2365	13.0372	1.29902	0.230272	0.00509258	0.00200566	0.000251213	0.00139434
4.82952	2889.94	320.73	21.0047	10.7391	38.2464	15.2884	1.74135	0.340076	0.00507866	0.0020216	0.00020691	0.00119797
4.83952	4381.57	562.27	18.6	23.7739	41.2918	17.0738	2.35599	0.470875	0.00517183	0.00199744	0.000158768	0.00102211
4.84951	5977.19	844.771	15.6608	41.2552	43.1602	18.2321	3.07927	0.610681	0.00536645	0.00193285	0.000110443	0.000868445
4.85951	7530.77	1144.08	12.4329	61.9734	43.7219	18.6494	3.8393	0.747234	0.00564694	0.00183112	6.6129e-05	0.000738687
4.86951	8895.56	1433.34	9.18816	84.3239	42.9407	18.2728	4.56258	0.869036	0.00598857	0.00169939	3.02535e-05	0.000634715
4.87951	9939.25	1685.37	6.19423	106.446	40.871	17.1159	5.17979	0.96622	0.00635923	0.00154853	7.06043e-06	0.000558654
4.88951	10556.4	1875.33	3.68576	126.394	37.657	15.2621	5.63222	1.03139	0.00672159	0.00139273	2.16193e-07	0.000512817
4.89951	10679.7	1983.31	1.83862	142.324	33.5181	12.86	5.87672	1.0602	0.0070359	0.00124874	1.24337e-05	0.000499541
4.90951	10287.8	1996.3	0.750459	152.687	28.7321	10.1133	5.8895	1.05164	0.00726339	0.00113478	4.51617e-05	0.000520883
4.91951	9409	1910.04	0.431691	156.383	23.6139	7.26712	5.66819	1.00811	0.00736933	0.00106932	9.83535e-05	0.000578353
4.92951	8120.5	1729.92	0.805352	152.902	18.4911	4.58847	5.23191	0.935224	0.00732611	0.00106973	0.000170377	0.000672545
4.93951	6542.88	1471.16	1.71837	142.399	13.6802	2.34566	4.61927	0.841263	0.00711607	0.00115062	0.000258016	0.000802823
4.9495	4830.82	1158.02	2.96199	125.712	9.46361	0.786587	3.88483	0.73657	0.00673325	0.00132265	0.000356614	0.00096715
4.9595	3160.39	822.275	4.29918	104.323	6.07028	0.117037	3.09355	0.632679	0.00618506	0.00159125	0.000460404	0.00116191
4.9695	1713.72	500.904	5.49527	80.2407	3.66082	0.483075	2.31497	0.541402	0.00549204	0.0019556	0.000562801	0.00138193
4.9795	663.264	233.116	6.34958	55.8462	2.31839	1.95654	1.6164	0.473892	0.00468749	0.00240824	0.000656931	0.00162061
4.9895	155.946	57.1008	6.72217	33.6821	2.04552	4.52653	1.05671	0.439814	0.00381533	0.00293485	0.000736142	0.00187021
4.9995	299.401	6.61102	6.55316	16.2288	2.76841	8.0967	0.680697	0.446562	0.0029278	0.00351468	0.000794429	0.00212221
5.0095	1151.17	107.734	5.8723	5.67151	4.3459	12.4896	0.515169	0.498751	0.00208178	0.00412148	0.00082706	0.00236772
5.0195	2712.08	376.167	4.79659	3.6882	6.58471	17.4573	0.566583	0.597851	0.001335	0.00472485	0.000830824	0.00259801
5.0295	4924.35	815.191	3.5158	11.2799	9.2577	22.6974	0.820924	0.74213	0.000741983	0.00529187	0.000804547	0.00280505
5.0395	7674.4	1414.68	2.26659	28.6576	12.1258	27.8743	1.24572	0.926758	0.000349856	0.00578939	0.000749107	0.00298178
5.04949	10801.6	2151.06	1.3025	55.2014	14.9588	32.643	1.7938	1.14424	0.000194882	0.00618607	0.000667661	0.00312273
5.05949	14110.1	2988.7	0.855366	89.5014	17.5567	36.6747	2.4091	1.38496	0.000299422	0.00645462	0.000565458	0.00322401
5.06949	17384.7	3882.17	1.10188	129.475	19.7688	39.6824	3.03311	1.63786	0.000669974	0.00657398	0.000449745	0.00328368
5.07949	20409.3	4779.83	2.13401	172.561	21.5067	41.442	3.61209	1.89126	0.00129626	0.00653112	0.00032937	0.00330152
5.08949	22985.6	5628.1	3.94164	215.969	22.755	41.8124	4.10407	2.13366	0.00215148	0.00632208	0.000214398	0.00327906
5.09949	24949.8	6376.08	6.40903	256.971	23.5751	40.7478	4.48491	2.35455	0.00319404	0.00595326	0.000115651	0.00321926
5.10949	26190.1	6981.07	9.32764	293.207	24.1027	38.3037	4.75241	2.54502	0.00436985	0.00544101	4.41411e-05	0.00312621
5.11949	26657.7	7412.64	12.4272	322.964	24.5408	34.638	4.92941	2.69837	0.00561622	0.00481129	1.05707e-05	0.00300477
5.12949	26373.6	7657.56	15.4222	345.436	25.1469	30.0013	5.06314	2.81037	0.00686612	0.00409849	2.48032e-05	0.00286011
5.13949	25430.7	7722.53	18.0686	360.913	26.2159	24.7239	5.22325	2.87955	0.00805271	0.0033433	9.53897e-05	0.00269744
5.14948	23990.3	7636.23	20.2293	370.85	28.0609	19.1955	5.49693	2.90704	0.00911407	0.0025905	0.000229168	0.00252169
5.15948	22271.8	7449.67	21.9375	377.887	30.9916	13.84	5.98217	2.89647	0.00999776	0.00188601	0.000430936	0.00233724
5.16948	20538.9	7234.91	23.4519	385.739	35.2927	9.08981	6.779	2.85346	0.0106645	0.00127408	0.000703194	0.00214782
5.17948	19080.9	7081.43	25.2962	398.944	41.2029	5.35645	7.98106	2.78519	0.0110908	0.000794094	0.001046	0.00195652
5.18948	18191.6	7091.98	28.2764	422.597	48.8991	3.00484	9.66613	2.69982	0.0112706	0.000477992	0.00145695	0.00176573
5.19948	18146.7	7376.05	33.4684	461.942	58.4797	2.32833	11.887	2.60576	0.0112158	0.000347867	0.00193109	0.00157733
5.20948	19184.5	8042.37	42.1739	521.94	69.9564	3.53003	14.6659	2.51118	0.0109547	0.000414158	0.00246114	0.00139291
5.21948	21483.1	9191.58	55.8514	606.841	83.2481	6.70824	17.9886	2.42345	0.0105301	0.000674733	0.00303753	0.00121387
5.22948	25147.5	10907.8	76.0078	719.751	98.181	11.8498	21.8028	2.34851	0.00999542	0.00111463	0.0036488	0.00104161
5.23948	30197.4	13251.4	104.078	862.286	114.495	18.8297	26.019	2.29073	0.00941102	0.00170687	0.00428168	0.000877663
5.24947	36562.4	16251.8	141.284	1034.24	131.853	27.4178	30.5146	2.25265	0.00883838	0.00241377	0.00492162	0.000723783
5.25947	44082.7	19903.7	188.495	1233.52	149.85	37.2922	35.1397	2.23486	0.00833604	0.00318945	0.00555307	0.000581898
5.26947	52517	24162.5	246.1	1455.99	168.036	48.0577	39.7267	2.23621	0.00795409	0.00398271	0.00615975	0.000454034
5.27947	61553.3	28945.1	313.888	1695.65	185.929	59.2688	44.0998	2.25386	0.00773082	0.00474034	0.00672566	0.000342155
5.28947	70828.8	34129.8	390.99	1944.87	203.038	70.4549	48.0881	2.28376	0.00768884	0.00541071	0.00723485	0.000247936
5.29947	79948.7	39562.5	475.833	2194.74	218.884	81.1469	51.5346	2.32092	0.00783357	0.00594736	0.00767263	0.000172572
5.30947	88511.2	45061.4	566.171	2435.53	233.011	90.9017	54.3079	2.35986	0.00815261	0.00631217	0.00802561	0.000116487
5.31947	96130.8	50426.4	659.148	2657.32	245.015	99.3278	56.3114	2.39502	0.00861659	0.0064782	0.00828264	7.92074e-05
5.32947	102460	55449.5	751.439	2850.39	254.545	106.103	57.4876	2.42116	0.00918139	0.00643176	0.00843522	5.91898e-05
5.33947	107209	59924.4	839.408	3006.04	261.331	110.987	57.8239	2.43375	0.00979191	0.00617337	0.00847763	5.38652e-05
5.34946	110167	63659.7	919.331	3116.95	265.177	113.837	57.3504	2.42915	0.0103862	0.00571831	0.00840796	5.97112e-05
5.35946	111205	66488.5	987.608	3177.66	265.978	114.606	56.1393	2.40486	0.010901	0.00509547	0.00822792	7.24984e-05
5.36946	110289	68279.2	1041.03	3184.99	263.717	113.34	54.2972	2.35956	0.0112766	0.00434576	0.00794315	8.7651e-05
5.37946	107476	68941.9	1076.98	3138.15	258.461	110.175	51.9587	2.29321	0.011462	0.00351956	0.00756306	0.000100682
5.38946	102911	68437.2	1093.66	3038.86	250.367	105.322	49.2745	2.20679	0.0114199	0.0026732	0.00710095	0.000107698
5.39946	96814.5	66776.7	1090.19	2891.25	239.663	99.048	46.4016	2.10237	0.0111296	0.00186538	0.00657317	0.000105975
5.40946	89467.7	64023.5	1066.76	2701.54	226.649	91.6645	43.4934	1.98273	0.0105896	0.00115314	0.00599866	9.44036e-05
5.41946	81196.6	60290.2	1024.64	2477.75	211.677	83.5052	40.687	1.85121	0.00981791	0.000587884	0.00539843	7.39603e-05
5.42946	72349.1	55732.7	966.072	2229.16	195.146	74.9047	38.0967	1.7115	0.00885197	0.000211811	0.00479421	4.79779e-05
5.43946	63277.7	50541.6	894.242	1965.84	177.482	66.1859	35.8066	1.56732	0.00774551	5.49357e-05	0.00420773	2.22671e-05
5.44945	54317.7	44932	813.015	1697.94	159.129	57.6393	33.8661	1.42228	0.00656557	0.000132856	0.00365938	5.03386e-06
5.45945	45772.5	39132.3	726.73	1435.27	140.534	49.5155	32.2906	1.27968	0.00538718	0.000445536	0.00316737	6.5888e-06
5.46945	37896.9	33370.2	639.912	1186.67	122.129	42.0142	31.0614	1.14231	0.00428835	0.000977112	0.00274662	3.88218e-05
5.47945	30888.5	27862.5	556.979	959.62	104.324	35.2796	30.1309	1.01252	0.00334385	0.00169676	0.00240796	0.000114508
5.48945	24880.2	22801.5	481.955	759.872	87.4867	29.4	29.4291	0.89203	0.00261978	0.0025607	0.00215753	0.000246433
5.49945	19940.5	18346.8	418.21	591.262	71.9419	24.4107	28.871	0.781979	0.0021684	0.00351494	0.00199643	0.000446445
5.50945	16073.7	14616.6	368.239	455.609	57.9548	20.2986	28.3659	0.68301	0.00202405	0.00449891	0.00192066	0.00072447
5.51945	13227.7	11683.3	333.513	352.785	45.7273	17.0108	27.8251	0.59526	0.0022003	0.00544934	0.00192146	0.00108754
5.52945	11302.4	9571.11	314.395	280.897	35.3933	14.4631	27.171	0.518509	0.00268865	0.00630466	0.00198587	0.00153895
5.53945	10161.7	8257.24	310.155	236.546	27.0174	12.5511	26.3433	0.452232	0.00345882	0.00700903	0.00209754	0.00207764
5.54944	9645.03	7675.56	319.033	215.213	20.5925	11.1588	25.3025	0.395746	0.00446096	0.00751618	0.00223803	0.00269779
5.55944	9582.11	7723.17	338.423	211.648	16.0484	10.1694	24.0346	0.348208	0.00562883	0.00779238	0.00238789	0.00338861
5.56944	9803.29	8268.98	365.067	220.3	13.2521	9.47202	22.5497	0.308783	0.0068846	0.0078191	0.00252817	0.00413468
5.57944	10151.7	9163.46	395.331	235.726	12.019	8.96799	20.8804	0.276645	0.00814452	0.00759388	0.00264168	0.00491616
5.58944	10491.4	10249.6	425.482	252.956	12.1207	8.57547	19.0773	0.251031	0.00932487	0.00713082	0.00271424	0.00570994
5.59944	10714.3	11373.4	451.978	267.792	13.2985	8.23134	17.2049	0.231262	0.0103478	0.00645969	0.00273578	0.00649037
5.60944	10743.3	12394.3	471.733	277.016	15.2738	7.89166	15.3333	0.216738	0.0111471	0.00562386	0.00270093	0.00723078
5.61944	10533.9	13193.2	482.327	278.515	17.7625	7.53045	13.5328	0.20694	0.0116729	0.0046776	0.00260948	0.00790443
5.62944	10072.6	13679.6	482.187	271.307	20.4875	7.13679	11.8671	0.201403	0.0118947	0.00368242	0.00246655	0.00848623
5.63944	9373.36	13795.8	470.661	255.473	23.1901	6.7118	10.3877	0.199685	0.0118041	0.00270322	0.00228193	0.00895389
5.64943	8472.78	13518.8	448.039	232.013	25.6416	6.26442	9.1296	0.201351	0.0114142	0.0018039	0.00206952	0.00928899
5.65943	7423.6	12859.3	415.488	202.651	27.6523	5.80787	8.10924	0.205937	0.010759	0.00104339	0.00184618	0.00947832
5.66943	6288.49	11858.8	374.93	169.59	29.0771	5.35579	7.32413	0.212938	0.0098904	0.000471823	0.00163041	0.00951403
5.67943	5133.15	10584.2	328.841	135.261	29.8211	4.91999	6.75383	0.221786	0.00887371	0.000127412	0.00144087	0.00939465
5.68943	4020.57	9120.96	280.03	102.069	29.8398	4.50814	6.36352	0.231857	0.00778289	3.41283e-05	0.00129492	0.00912442
5.69943	3005.88	7565.24	231.393	72.1779	29.1381	4.12309	6.10817	0.242471	0.00669501	0.000200313	0.00120707	0.00871372
5.70943	2132.54	6015.55	185.668	47.3256	27.7661	3.76276	5.93799	0.252914	0.00568397	0.000618363	0.00118783	0.00817787
5.71943	1430.42	4565.18	145.205	28.7018	25.8127	3.42118	5.80405	0.262443	0.00481574	0.00126541	0.00124267	0.00753692
5.72943	913.852	3294.42	111.802	16.8856	23.3974	3.08975	5.66405	0.270374	0.00414297	0.002105	0.00137146	0.00681392
5.73943	582.993	2265.21	86.5628	11.8392	20.6605	2.7594	5.48659	0.276062	0.00370186	0.00308969	0.00156834	0.00603459
5.74942	424.798	1517.24	69.8493	12.9609	17.7527	2.42235	5.25504	0.278975	0.0035098	0.004164	0.00182191	0.00522549
5.75942	415.581	1065.73	61.2881	19.1844	14.8246	2.07427	4.96919	0.278727	0.0035646	0.00526834	0.00211594	0.00441303
5.76942	524.004	901.694	59.8446	29.1115	12.0172	1.71543	4.64582	0.275137	0.00384537	0.00634242	0.00243051	0.00362253
5.77942	714.295	994.057	63.9548	41.1631	9.45288	1.35179	4.31697	0.268222	0.00431475	0.00732919	0.00274338	0.00287713
5.78942	949.63	1293.41	71.705	53.7361	7.22887	0.99511	4.02701	0.25826	0.00492232	0.00817822	0.0030316	0.00219719
5.79942	1195.01	1737.23	81.0319	65.3466	5.41206	0.662419	3.82794	0.245773	0.00560941	0.00884828	0.0032732	0.00159963
5.80942	1419.83	2255.92	89.9314	74.7534	4.03683	0.374596	3.77456	0.231523	0.00631355	0.00930976	0.00344878	0.00109768
5.81942	1599.8	2779.15	96.6544	81.0465	3.10473	0.154808	3.91832	0.216487	0.00697418	0.00954574	0.00354302	0.000700845
5.82942	1717.98	3242	99.8734	83.7004	2.58721	0.0258842	4.30217	0.201809	0.00753707	0.00955257	0.003546	0.000414956
5.83942	1765.34	3590.33	98.799	82.585	2.42958	0.00805294	4.95533	0.188739	0.00795871	0.00933926	0.00345378	0.000242368
5.84941	1740.44	3785.06	93.2415	77.9406	2.5571	0.116463	5.88977	0.178547	0.0082097	0.00892632	0.00326891	0.000182398
5.85941	1648.68	3804.84	83.6102	70.321	2.88232	0.359071	7.09772	0.17244	0.00827623	0.00834375	0.00300038	0.000231703
5.86941	1501.01	3647.08	70.8518	60.5114	3.31264	0.735024	8.55083	0.171452	0.00816128	0.0076288	0.00266275	0.000384731
5.87941	1312.33	3327.26	56.334	49.4304	3.758	1.23375	10.2018	0.176364	0.00788312	0.0068226	0.00227556	0.000634112
5.88941	1099.95	2876.87	41.6879	38.0339	4.13848	1.83503	11.9867	0.187595	0.0074738	0.0059682	0.00186155	0.000971062
5.89941	881.649	2339.23	28.6209	27.2134	4.38935	2.50947	13.8288	0.205142	0.00697558	0.00510718	0.00144529	0.00138558
5.90941	674.307	1765.49	18.7268	17.722	4.46634	3.22044	15.6443	0.228534	0.00643688	0.00427701	0.00105128	0.00186674
5.91941	492.515	1209	13.3025	10.1124	4.34787	3.9263	17.3482	0.256806	0.0059079	0.00350972	0.00070221	0.00240289
5.92941	347.535	720.24	13.1979	4.70141	4.03563	4.58326	18.8593	0.288522	0.00543605	0.00282982	0.000417395	0.00298141
5.93941	246.741	341.945	18.7092	1.56366	3.55325	5.14873	20.1068	0.32184	0.00506161	0.00225382	0.000211329	0.00358917
5.9494	193.204	105.106	29.531	0.547286	2.94305	5.58461	21.0342	0.354612	0.00481428	0.00178984	9.27245e-05	0.0042123
5.9594	185.84	26.1891	44.768	1.31239	2.26155	5.86042	21.6036	0.384519	0.0047106	0.00143829	6.39343e-05	0.00483623
5.9694	219.783	105.795	63.0123	3.38486	1.57356	5.95607	21.7962	0.409225	0.00475246	0.0011927	0.00012087	0.00544597
5.9794	286.991	328.872	82.4756	6.21921	0.946128	5.86358	21.6149	0.426599	0.00492717	0.00104127	0.000253396	0.0060261
5.9894	377.148	666.39	101.161	9.26229	0.442154	5.58871	21.0806	0.434871	0.00520892	0.000968431	0.000446218	0.0065612
5.9994	478.634	1078.42	117.075	12.0139	0.114686	5.15047	20.2319	0.432823	0.00556076	0.000956702	0.000680089	0.00703603
6.0094	579.511	1518.17	128.428	14.0748	0.00219565	4.58076	19.12	0.419948	0.00593839	0.000988427	0.000933306	0.00743627
6.0194	668.648	1936.83	133.845	15.1809	0.125114	3.92233	17.8047	0.396598	0.00629394	0.00104735	0.00118346	0.00774874
6.0294	736.542	2288.33	132.524	15.2187	0.484131	3.22589	16.3493	0.363978	0.00658072	0.00111984	0.0014091	0.00796205
6.0394	776.257	2534.1	124.353	14.2249	1.06009	2.54695	14.8163	0.324206	0.00675723	0.00119565	0.00159138	0.00806743
6.04939	783.894	2646.98	109.968	12.3681	1.81578	1.94181	13.2631	0.280199	0.00679128	0.00126838	0.00171551	0.00805885
6.05939	759.135	2614.09	90.7287	9.91657	2.69906	1.46351	11.7381	0.235535	0.00666288	0.00133533	0.00177164	0.00793376
6.06939	705.098	2438.21	68.6293	7.20098	3.64725	1.15805	10.2794	0.194228	0.00636646	0.00139705	0.00175574	0.00769347
6.07939	628.418	2137.7	46.1395	4.56836	4.59271	1.06082	8.91289	0.160452	0.00591153	0.0014563	0.00166969	0.00734306
6.08939	538.607	1744.98	25.9936	2.34031	5.46785	1.1938	7.65336	0.138231	0.00532238	0.00151735	0.00152108	0.00689165
6.09939	447.381	1303.39	10.9403	0.776971	6.21143	1.56371	6.50528	0.131102	0.00463597	0.00158444	0.00132243	0.00635219
6.10939	367.703	863.073	3.47867	0.0493054	6.77266	2.16106	5.46538	0.141796	0.00389917	0.0016607	0.00109023	0.00574093
6.11939	312.631	475.957	5.6027	0.224447	7.11568	2.96044	4.52546	0.171938	0.00316482	0.00174736	0.000843614	0.0050771
6.12939	294.088	190.545	18.5789	1.26348	7.22164	3.9218	3.67545	0.221846	0.00248747	0.00184275	0.000602703	0.00438189
6.13939	321.658	46.8541	42.7796	3.03172	7.08984	4.99294	2.90658	0.290364	0.00191851	0.0019423	0.000387224	0.00367802
6.14938	401.388	71.9921	77.5863	5.31977	6.73741	6.11262	2.21356	0.37486	0.00150183	0.00203823	0.000214901	0.00298849
6.15938	534.956	276.922	121.385	7.87117	6.19669	7.21454	1.59628	0.471299	0.00126997	0.00212041	0.000100208	0.00233569
6.16938	718.941	654.659	171.643	10.4148	5.51213	8.23163	1.06051	0.574453	0.00124092	0.00217709	5.33305e-05	0.0017406
6.17938	944.7	1180.17	225.075	12.6968	4.73615	9.10038	0.617448	0.678218	0.00141653	0.00219623	7.95286e-05	0.00122187
6.18938	1198.53	1812.05	277.89	14.5084	3.92391	9.76508	0.282172	0.77603	0.00178182	0.00216675	0.00017889	0.000795025
6.19938	1462.48	2495.89	326.095	15.7071	3.12858	10.1814	0.0713742	0.861372	0.002306	0.00208046	0.00034644	0.000472005
6.20938	1715.55	3169.02	365.819	16.2287	2.39691	10.3197	0.000318166	0.928248	0.00294461	0.00193317	0.000572723	0.000260684
6.21938	1935.37	3766.41	393.67	16.089	1.76514	10.1666	0.0796689	0.97177	0.00364305	0.00172616	0.000844644	0.000164728
6.22938	2100.16	4227.06	407.046	15.3778	1.25665	9.72674	0.312385	0.98854	0.00434078	0.00146699	0.0011466	0.000183552
6.23938	2191.2	4500.24	404.411	14.2393	0.880691	9.02172	0.691188	0.977148	0.00497625	0.00117001	0.00146167	0.000312556
6.24937	2194.79	4551.51	385.48	12.8532	0.63257	8.09002	1.19691	0.9383	0.0054922	0.000856131	0.00177298	0.000543513
6.25937	2104.5	4367.18	351.321	11.4081	0.495263	6.98414	1.79808	0.875016	0.00584042	0.000552115	0.00206489	0.000865053
6.26937	1922.9	3957.23	304.338	10.0767	0.442457	5.76812	2.4518	0.792509	0.0059859	0.000289227	0.00232401	0.00126333
6.27937	1662.59	3356.56	248.162	8.99382	0.442305	4.51371	3.10619	0.697962	0.00591042	0.00010138	0.00254018	0.00172276
6.28937	1346.69	2623.47	187.407	8.24156	0.461936	3.29643	3.70407	0.600049	0.00561445	2.2816e-05	0.00270673	0.00222666
6.29937	1008.24	1836.49	127.357	7.84064	0.471985	2.19164	4.18774	0.508387	0.0051179	8.55064e-05	0.00282089	0.00275812
6.30937	688.82	1088.96	73.5816	7.75161	0.450857	1.27028	4.50479	0.432811	0.00445936	0.000316504	0.00288347	0.0033006
6.31937	436.251	481.89	31.5005	7.88326	0.388236	0.595574	4.61373	0.382655	0.00369382	0.000735298	0.0028986	0.00383836
6.32937	301.223	115.966	5.95572	8.11034	0.287259	0.219657	4.4898	0.365888	0.00288906	0.00135168	0.00287288	0.00435738
6.33937	333.776	82.8021	0.807649	8.29176	0.165743	0.181378	4.12999	0.388454	0.00212134	0.00216391	0.00281467	0.00484541
6.34936	578.954	456.693	18.5949	8.29613	0.0555273	0.50468	3.55662	0.453617	0.00146988	0.00315756	0.00273312	0.00529237
6.35936	1072.73	1287.14	60.2888	8.02125	0.000534101	1.19784	2.81931	0.561546	0.0010116	0.00430538	0.00263744	0.00569046
6.36936	1838.01	2593.34	125.159	7.41378	0.0534712	2.25365	1.99526	0.70899	0.000815515	0.0055678	0.00253588	0.00603408
6.37936	2881.7	4360.58	210.779	6.47959	0.27153	3.65021	1.18662	0.88943	0.000937921	0.00689468	0.0024354	0.00631998
6.38936	4192.45	6539.52	313.157	5.28763	0.711471	5.35266	0.516711	1.09319	0.00141823	0.00822708	0.00234117	0.006547
6.39936	5739.9	9048.45	427.006	3.96519	1.42452	7.31468	0.12335	1.30814	0.00227618	0.00950119	0.00225663	0.00671559
6.40936	7475.6	11778.1	546.118	2.68482	2.4516	9.48161	0.151234	1.52028	0.00351015	0.0106512	0.00218365	0.00682798
6.41936	9335.58	14599.1	663.828	1.6448	3.81941	11.7926	0.742752	1.71488	0.00509705	0.0116137	0.00212298	0.0068875
6.42936	11243.9	17372.3	773.536	1.04655	5.53755	14.1828	2.02864	1.87746	0.00699366	0.0123321	0.00207494	0.00689839
6.43936	13119.1	19959	869.227	1.07023	7.59728	16.5868	4.11844	1.99496	0.00913911	0.0127597	0.00204012	0.00686546
6.44935	14880.1	22233.6	945.989	1.85406	9.97167	18.9404	7.09215	2.05692	0.0114587	0.0128641	0.00202027	0.00679394
6.45935	16453.6	24094.9	1000.45	3.47878	12.6176	21.1822	10.9931	2.05637	0.0138683	0.0126297	0.00201894	0.00668883
6.46935	17781.5	25475.8	1031.1	5.96107	15.479	23.2559	15.8228	1.99077	0.0162791	0.0120591	0.00204209	0.00655522
6.47935	18828.2	26352.2	1038.51	9.25632	18.4914	25.1114	21.539	1.86248	0.0186031	0.011175	0.00209846	0.00639769
6.48935	19586.2	26747.4	1025.37	13.2739	21.5876	26.7049	28.0548	1.67899	0.0207571	0.0100187	0.00219956	0.00622034
6.49935	20079.5	26735.1	996.42	17.8985	24.7011	28.0011	35.2417	1.45286	0.0226679	0.0086494	0.00235928	0.00602657
6.50935	20366.6	26436.2	958.113	23.0242	27.7743	28.9725	42.936	1.2011	0.0242747	0.00714113	0.00259344	0.00581938
6.51935	20539.2	26013.4	918.292	28.5858	30.7599	29.5994	50.9446	0.944354	0.025532	0.00557894	0.00291856	0.00560097
6.52935	20718.3	25661.4	885.628	34.5971	33.6253	29.8716	59.0565	0.705818	0.0264101	0.0040548	0.00335097	0.00537311
6.53935	21048.9	25595.1	868.991	41.1764	36.3542	29.7856	67.05	0.509763	0.0268964	0.00266194	0.00390493	0.00513688
6.54934	21691.1	26033.8	876.868	48.5712	38.9447	29.3473	74.7066	0.379964	0.0269932	0.00148986	0.00459182	0.00489321
6.55934	22808.3	27185.5	916.683	57.1606	41.4092	28.5702	81.8198	0.338133	0.0267166	0.000618874	0.00541789	0.00464262
6.56934	24556.7	29230	994.2	67.446	43.7679	27.4753	88.2047	0.402321	0.0260934	0.00011515	0.00638385	0.00438563
6.57934	27070.7	32304.5	1113.09	80.0248	46.0465	26.0915	93.7076	0.585531	0.0251594	2.65122e-05	0.00748313	0.00412285
6.58934	30451.7	36488.6	1274.49	95.5429	48.2684	24.4542	98.2077	0.894608	0.0239554	0.000379091	0.00870214	0.00385513
6.59934	34756.5	41796.2	1476.88	114.635	50.4485	22.6048	101.626	1.32944	0.0225251	0.00117529	0.0100191	0.00358373
6.60934	39988.5	48168.2	1715.97	137.856	52.5895	20.5901	103.923	1.88261	0.0209125	0.00239305	0.0114053	0.00331056
6.61934	46090.6	55470.1	1984.9	165.601	54.6755	18.4609	105.096	2.53949	0.0191602	0.00398639	0.0128253	0.00303809
6.62934	52945.5	63498.4	2274.55	198.037	56.669	16.2698	105.181	3.27877	0.0173083	0.00588768	0.0142391	0.00276971
6.63934	60374	71986.9	2574.04	235.035	58.5119	14.0708	104.244	4.07354	0.0153944	0.00801086	0.0156026	0.00250957
6.64933	68144.6	80617.8	2871.26	276.132	60.1248	11.9166	102.373	4.89244	0.0134532	0.0102557	0.016871	0.00226278
6.65933	75980.1	89044.5	3153.6	320.486	61.4109	9.85694	99.6761	5.70168	0.0115175	0.0125136	0.0180001	0.00203513
6.66933	83575.2	96902.3	3408.67	366.915	62.2651	7.93596	96.2704	6.46667	0.00961995	0.0146733	0.0189491	0.00183331
6.67933	90609.4	103836	3624.96	413.897	62.578	6.19157	92.2782	7.15391	0.0077929	0.0166266	0.0196821	0.00166433
6.68933	96767.6	109517	3792.6	459.662	62.2472	4.65277	87.8187	7.73328	0.00607093	0.0182749	0.020171	0.00153583
6.69933	101759	113667	3903.8	502.259	61.1869	3.33918	83.0058	8.17927	0.00449044	0.0195345	0.0203963	0.00145539
6.70933	105334	116071	3953.37	539.702	59.3353	2.2599	77.9451	8.47284	0.00309067	0.0203413	0.0203484	0.00143054
6.71933	107303	116591	3938.93	570.069	56.6665	1.41372	72.7314	8.60221	0.00191295	0.0206537	0.0200279	0.00146826
6.72933	107549	115181	3861.1	591.654	53.194	0.789494	67.4504	8.56369	0.00099941	0.0204566	0.0194463	0.00157475
6.73933	106034	111882	3723.34	603.101	48.9749	0.367397	62.1777	8.36189	0.000391489	0.0197603	0.0186244	0.0017551
6.74932	102809	106828	3531.74	603.486	44.1127	0.120332	56.9836	8.00899	0.000127162	0.0186015	0.0175919	0.00201298
6.75932	98009.3	100232	3294.68	592.445	38.7523	0.0165051	51.9324	7.52434	0.000238276	0.01704	0.0163853	0.0023502
6.76932	91847.8	92381	3022.22	570.186	33.0756	0.0216793	47.0867	6.93303	0.0007473	0.0151562	0.0150463	0.00276668
6.77932	84606.4	83611.7	2725.58	537.534	27.2918	0.101965	42.5084	6.26444	0.0016645	0.0130462	0.0136194	0.00326015
6.78932	76617.2	74298.7	2416.47	495.879	21.6269	0.226411	38.2592	5.55039	0.00298511	0.0108171	0.0121496	0.00382585
6.79932	68245.3	64826.6	2106.5	447.113	16.31	0.369367	34.4007	4.82332	0.00468759	0.00858	0.0106806	0.00445675
6.80932	59865.7	55572.9	1806.49	393.514	11.5585	0.51245	30.9934	4.11443	0.00673222	0.00644498	0.00925201	0.00514347
6.81932	51842.2	46884.8	1525.97	337.604	7.56582	0.645917	28.0927	3.45202	0.00906136	0.00451469	0.00789846	0.00587402
6.82932	44506.9	39060.7	1272.78	281.996	4.48684	0.769054	25.7468	2.85983	0.0116008	0.00287916	0.00664821	0.00663463
6.83932	38136.6	32335.7	1052.72	229.216	2.42897	0.890068	23.9916	2.35624	0.0142617	0.0016108	0.00552171	0.00740936
6.84931	32941.8	26871	869.425	181.539	1.44359	1.02503	22.8469	1.95326	0.0169451	0.000761078	0.00453202	0.00818092
6.85931	29053.2	22747.1	724.297	140.845	1.52246	1.19603	22.3117	1.6563	0.0195457	0.000358103	0.00368439	0.00893081
6.86931	26516	19963.8	616.66	108.497	2.59761	1.42875	22.3614	1.46434	0.0219572	0.000405494	0.00297724	0.00963992
6.87931	25289.9	18444.4	543.971	85.2581	4.54541	1.74954	22.9452	1.37039	0.0240791	0.000882805	0.00240294	0.0102889
6.88931	25254.8	18045.2	502.122	71.2599	7.19429	2.18234	23.9858	1.36241	0.0258214	0.00174711	0.00194901	0.0108591
6.89931	26221	18567.4	485.887	66.0121	10.3358	2.74551	25.3809	1.42444	0.0271096	0.00293592	0.0015996	0.0113329
6.90931	27945	19774.8	489.315	68.4602	13.7382	3.44961	27.0068	1.53791	0.0278907	0.00437112	0.00133697	0.0116943
6.91931	30148	21409.4	506.191	77.0846	17.1616	4.29432	28.723	1.68311	0.0281353	0.00596359	0.00114277	0.0119296
6.92931	32535.2	23211.3	530.453	90.0357	20.3727	5.26801	30.3804	1.84049	0.0278407	0.00761834	0.000999577	0.0120282
6.93931	34818.5	24934.7	556.561	105.286	23.1606	6.34674	31.8284	1.99199	0.0270304	0.00923977	0.000891667	0.0119829
6.9493	36734.8	26364.2	579.792	120.797	25.3488	7.49507	32.9252	2.12211	0.0257534	0.0107374	0.000805979	0.0117901
6.9593	38063.8	27326.9	596.458	134.677	26.8063	8.66762	33.5455	2.21865	0.0240817	0.0120297	0.000732506	0.0114507
6.9693	38642.2	27701.4	604.026	145.331	27.4543	9.81203	33.5905	2.27326	0.0221056	0.0130493	0.00066445	0.0109697
6.9793	38372.4	27422.4	601.146	151.567	27.2697	10.8718	32.9944	2.28165	0.0199283	0.0137454	0.000598098	0.0103569
6.9893	37226.7	26481.4	587.573	152.678	26.284	11.7902	31.7302	2.24346	0.01766	0.0140863	0.000532454	0.00962627
6.9993	35245.9	24923.7	564.076	148.483	24.5786	12.5156	29.8117	2.16166	0.0154118	0.0140605	0.000468572	0.0087957
7.0093	32533.4	22839.9	532.177	139.304	22.2789	13.0043	27.2959	2.04229	0.0132871	0.0136764	0.000408991	0.00788706
7.0193	29244.7	20357.1	493.986	125.918	19.5404	13.2251	24.2789	1.89338	0.0113777	0.0129611	0.000356895	0.00692485
7.0293	25572.6	17626.4	451.906	109.468	16.5398	13.1617	20.8907	1.72417	0.0097577	0.0119583	0.000315452	0.00593607
7.0393	21731.2	14809.8	408.407	91.3427	13.4593	12.8153	17.2884	1.54426	0.00847885	0.0107247	0.000287189	0.00494873
7.04929	17938.6	12066.7	365.805	73.0359	10.4751	12.2053	13.646	1.36279	0.00756941	0.00932728	0.000273555	0.00399144
7.05929	14399.9	9542.38	326.063	56.0087	7.74453	11.3684	10.1434	1.18771	0.00703221	0.00783806	0.000274574	0.00309179
7.06929	11291.8	7357.15	290.666	41.554	5.39643	10.3572	6.9551	1.02535	0.00684609	0.00633053	0.000288857	0.00227568
7.07929	8750.14	5598.96	260.542	30.6815	3.524	9.23688	4.23912	0.880054	0.0069681	0.0048754	0.000313648	0.00156582
7.08929	6861.6	4318.34	236.032	24.0352	2.18021	8.08097	2.12635	0.754139	0.00733753	0.00353663	0.000345097	0.000981291
7.09929	5658.94	3527.02	216.935	21.8437	1.37684	6.96671	0.712458	0.647943	0.00788046	0.00236844	0.00037866	0.000536209
7.10929	5121.19	3199.34	202.572	23.9122	1.08659	5.9692	0.0518905	0.560183	0.00851585	0.00141257	0.000409623	0.000239421
7.11929	5178.24	3276.86	191.915	29.6551	1.24799	5.15627	0.154617	0.488334	0.00916113	0.000696711	0.000433581	9.38911e-05
7.12929	5718.85	3675.07	183.715	38.1629	1.77253	4.5834	0.986037	0.429163	0.00973826	0.000233739	0.000446918	9.66147e-05
7.13929	6602	4291.92	176.654	48.2985	2.55338	4.28916	2.46981	0.379247	0.0101787	2.18328e-05	0.000447231	0.000238697
7.14928	7670.08	5017.44	169.486	58.8142	3.47529	4.29231	4.49368	0.335466	0.0104283	4.54538e-05	0.000433587	0.000505694
7.15928	8762.74	5742.87	161.161	68.4738	4.42374	4.58979	6.91719	0.295452	0.0104496	0.000277087	0.00040668	0.000878234
7.16928	9731.15	6370.21	150.921	76.1737	5.29411	5.1569	9.5822	0.257883	0.0102246	0.000679636	0.000368795	0.00133302
7.17928	10448.6	6819.01	138.363	81.0457	5.99899	5.94781	12.3223	0.222608	0.00975446	0.00120921	0.000323613	0.0018437
7.18928	10822	7032.38	123.468	82.5363	6.47393	6.89955	14.975	0.190666	0.0090587	0.00181821	0.000275868	0.00238226
7.19928	10796.7	6980.32	106.574	80.4551	6.68024	7.9356	17.3918	0.164134	0.0081726	0.00245845	0.000230943	0.00292017
7.20928	10359.9	6660.36	88.343	74.9828	6.60637	8.97145	19.4465	0.145797	0.0071441	0.00308405	0.000194349	0.0034299
7.21928	9539.64	6096.07	69.6698	66.6468	6.26632	9.92108	21.0431	0.138791	0.00602926	0.00365433	0.000171157	0.00388607
7.22928	8399.77	5333.37	51.5927	56.2597	5.69643	10.703	22.1199	0.146129	0.00488792	0.00413566	0.000165535	0.00426651
7.23928	7032.73	4434.89	35.18	44.8336	4.95023	11.2462	22.651	0.170248	0.00377897	0.00450355	0.000180375	0.00455359
7.24927	5549.4	3473.6	21.4223	33.469	4.09271	11.4967	22.6473	0.2126	0.00275598	0.00474302	0.000216845	0.00473452
7.25927	4068.12	2525.23	11.1369	23.2457	3.19364	11.4204	22.1508	0.273309	0.00186354	0.0048495	0.000274387	0.00480224
7.26927	2702.88	1661.26	4.88655	15.1087	2.32141	11.0078	21.2307	0.35099	0.00113458	0.00482782	0.000350625	0.00475543
7.27927	1553.16	942.52	2.92402	9.77239	1.53703	10.274	19.9763	0.442678	0.000588488	0.00469178	0.000441582	0.00459835
7.28927	694.636	413.955	5.16924	7.649	0.889787	9.25915	18.4874	0.543959	0.000230719	0.00446213	0.000541958	0.0043406
7.29927	172.887	101.183	11.2143	8.8062	0.413822	8.02552	16.8681	0.649217	5.32417e-05	0.00416508	0.000645605	0.00399635
7.30927	0.109363	8.88461	20.3603	12.9631	0.126443	6.65405	15.217	0.752039	3.62826e-05	0.0038297	0.000746024	0.00358365
7.31927	154.975	121.258	31.6784	19.5204	0.0280735	5.23868	13.6205	0.845729	0.000150721	0.00348596	0.000836996	0.00312319
7.32927	585.8	404.348	44.0924	27.6225	0.103658	3.88025	12.1479	0.923875	0.00036125	0.00316254	0.000913037	0.0026373
7.33927	1216.66	809.954	56.466	36.2547	0.325109	2.67961	10.8471	0.980926	0.000629743	0.00288451	0.000970023	0.00214856
7.34926	1955.5	1280.92	67.7108	44.342	0.655041	1.73007	9.74388	1.01264	0.000918702	0.00267178	0.00100551	0.00167912
7.35926	2704	1756.88	76.8668	50.8746	1.05059	1.1114	8.84137	1.01664	0.00119448	0.002538	0.00101899	0.00124901
7.36926	3367.75	2180.38	83.1859	55.0163	1.46762	0.883623	8.12356	0.9926	0.00142975	0.00248968	0.00101207	0.000875679
7.37926	3865.86	2502.43	86.1875	56.1979	1.86451	1.08282	7.55881	0.942397	0.00160557	0.0025259	0.000988291	0.000573071
7.38926	4139.26	2687.16	85.6971	54.1923	2.2056	1.71813	7.10529	0.870061	0.00171229	0.00263868	0.000953025	0.000351089
7.39926	4156.7	2715.18	81.8468	49.1458	2.46346	2.77064	6.71665	0.781497	0.00174971	0.00281368	0.000912875	0.000215434
7.40926	3917.9	2585.24	75.0577	41.5794	2.6204	4.19453	6.34774	0.684074	0.00172627	0.00303156	0.000875481	0.000167447
7.41926	3453.65	2313.98	65.9955	32.3468	2.66912	5.91937	5.96014	0.586049	0.00165738	0.00326939	0.000848542	0.000204392
7.42926	2822.59	1934.21	55.4989	22.5603	2.61198	7.85491	5.52598	0.495917	0.00156346	0.00350251	0.000839495	0.000319799
7.43926	2105.28	1491.2	44.5046	13.4818	2.4599	9.89641	5.03111	0.421745	0.00146714	0.00370632	0.000854725	0.000504084
7.44925	1395.86	1038.22	33.9543	6.4003	2.23035	11.9314	4.47599	0.370462	0.00139067	0.0038579	0.000899016	0.000745216
7.45925	792.081	630.79	24.7109	2.49774	1.94514	13.8469	3.87545	0.347295	0.00135338	0.00393827	0.000975249	0.00102953
7.46925	384.942	321.088	17.4776	2.72047	1.62795	15.5364	3.25659	0.355283	0.00136938	0.0039331	0.00108388	0.00134253
7.47925	248.616	152.349	12.7371	7.66922	1.30221	16.9067	2.65534	0.395039	0.00144599	0.00383416	0.00122301	0.00166965
7.48925	431.786	154.213	10.7077	17.5177	0.988921	17.8831	2.11231	0.46463	0.00158291	0.00363988	0.00138827	0.00199707
7.49925	951.386	339.328	11.3292	31.9698	0.705494	18.4144	1.66777	0.559764	0.00177197	0.0033555	0.00157311	0.00231226
7.50925	1789.06	701.42	14.27	50.2562	0.46446	18.4751	1.35713	0.674064	0.00199802	0.00299297	0.00176912	0.00260454
7.51925	2891.74	1215.54	18.9658	71.1891	0.273453	18.0672	1.20633	0.79974	0.00224043	0.00257008	0.00196665	0.00286546
7.52925	4174.78	1839.67	24.6777	93.2417	0.13511	17.2184	1.22864	0.928151	0.00247502	0.00210951	0.00215534	0.00308899
7.53925	5529.12	2518.49	30.5681	114.68	0.0478378	15.9807	1.42258	1.05064	0.00267678	0.00163746	0.00232478	0.00327151
7.54924	6831.18	3188.33	35.7876	133.709	0.00665669	14.4259	1.7712	1.1593	0.00282251	0.00118223	0.00246513	0.00341181
7.55924	7954.34	3783.32	39.568	148.643	0.00431182	12.6412	2.24305	1.24777	0.00289355	0.00077236	0.00256797	0.00351087
7.56924	8782.02	4241.84	41.3075	158.065	0.0323793	10.722	2.79469	1.31183	0.00287815	0.000435112	0.00262663	0.00357144
7.57924	9219.85	4513.04	40.6454	160.971	0.0822958	8.76702	3.37427	1.34996	0.00277322	0.000194909	0.00263667	0.00359778
7.58924	9207.34	4562.61	37.5145	156.894	0.146225	6.87166	3.92618	1.36348	0.00258565	7.1966e-05	0.00259629	0.00359515
7.59924	8726.46	4377.3	32.1714	145.971	0.217632	5.12203	4.39614	1.3567	0.00233227	8.12172e-05	0.00250625	0.00356931
7.60924	7806.98	3967.92	25.1987	128.97	0.291686	3.59044	4.73639	1.33659	0.00203957	0.000231575	0.00237016	0.00352625
7.61924	6528.13	3370.06	17.4726	107.257	0.365374	2.33153	4.91023	1.31233	0.00174201	0.000525589	0.0021938	0.00347161
7.62924	5015.44	2642.81	10.1077	82.7165	0.437429	1.38	4.89564	1.29463	0.00147989	0.000959403	0.00198529	0.0034105
7.63924	3433.75	1865.44	4.37453	57.6152	0.50817	0.749855	4.68813	1.29481	0.00129627	0.00152311	0.00175423	0.00334712
7.64923	1975.76	1131.86	1.59793	34.4311	0.579294	0.434809	4.30132	1.3239	0.00123386	0.00220151	0.00151141	0.00328469
7.65923	847.957	543.842	3.04524	15.6574	0.65363	0.410367	3.76639	1.39163	0.00133139	0.00297502	0.00126799	0.00322508
7.66923	254.043	202.961	9.81206	3.59795	0.735108	0.636849	3.13018	1.50547	0.00162048	0.00382078	0.00103518	0.00316939
7.67923	378.065	202.238	22.7115	0.169039	0.828332	1.06327	2.45079	1.66987	0.00212245	0.00471406	0.000823246	0.00311728
7.68923	1367.41	617.99	42.1875	6.72709	0.939313	1.63214	1.79429	1.88561	0.00284608	0.00562943	0.000641365	0.00306762
7.69923	3318.83	1502.79	68.2412	23.9374	1.07481	2.28381	1.22829	2.14947	0.00378612	0.00654212	0.000496931	0.00301847
7.70923	6267.11	2879.8	100.398	51.6956	1.24285	2.9614	0.81701	2.45418	0.00492274	0.00742911	0.000395373	0.00296744
7.71923	10178.2	4739.37	137.703	89.1068	1.45267	3.61446	0.616124	2.78866	0.00622181	0.00826994	0.000339809	0.00291169
7.72923	14948.3	7037.95	178.755	134.537	1.71465	4.20268	0.668364	3.13857	0.00763666	0.00904786	0.000331028	0.00284851
7.73923	20407.1	9699.81	221.784	185.712	2.04012	4.69816	1.00035	3.48708	0.00911016	0.0097497	0.000367514	0.00277523
7.74922	26328.3	12621.4	264.744	239.891	2.44099	5.08663	1.62084	3.81601	0.0105781	0.0103663	0.00044557	0.00268974
7.75922	32443.2	15677.5	305.452	294.06	2.92922	5.3677	2.52057	4.10686	0.011973	0.0108926	0.000559576	0.00259039
7.76922	38460	18730.8	341.732	345.178	3.51618	5.55401	3.6735	4.34222	0.0132279	0.0113271	0.000702326	0.00247644
7.77922	44084.8	21640.5	371.57	390.397	4.21209	5.66929	5.03975	4.5069	0.0142805	0.011671	0.00086545	0.00234782
7.78922	49043.8	24274.2	393.267	427.318	5.02504	5.74574	6.56958	4.58895	0.0150771	0.0119281	0.00103976	0.00220538
7.79922	53106.2	26517.1	405.574	454.168	5.96083	5.82087	8.20797	4.58077	0.0155762	0.012104	0.00121593	0.00205081
7.80922	56102.6	28282.6	407.822	469.965	7.02257	5.9341	9.8998	4.47955	0.0157504	0.0122045	0.00138461	0.00188653
7.81922	57942.6	29518.8	399.964	474.616	8.21077	6.1231	11.5947	4.28775	0.0155886	0.012236	0.00153722	0.00171559
7.82922	58622.4	30214.8	382.656	468.938	9.52356	6.42079	13.2511	4.01297	0.0150963	0.0122044	0.00166617	0.00154158
7.83922	58232.6	30402.1	357.22	454.619	10.9585	6.85249	14.8398	3.66766	0.0142961	0.0121139	0.00176525	0.00136824
7.84921	56954.3	30154.5	325.617	434.088	12.5112	7.43384	16.3457	3.26834	0.0132254	0.0119678	0.00182992	0.00119952
7.85921	55048.8	29585.1	290.316	410.378	14.1805	8.16991	17.7678	2.83472	0.0119339	0.011768	0.00185766	0.00103917
7.86921	52843.4	28837	254.195	386.864	15.9664	9.05378	19.1185	2.3884	0.0104818	0.0115147	0.00184796	0.000890664
7.87921	50709.2	28076.4	220.35	367.037	17.873	10.068	20.4211	1.95161	0.00893511	0.0112073	0.00180253	0.000756997
7.88921	49035.8	27479.1	191.92	354.219	19.909	11.1851	21.705	1.54574	0.00736235	0.0108444	0.00172522	0.000640446
7.89921	48205.5	27219.3	171.883	351.321	22.0878	12.37	23.0025	1.1901	0.00583049	0.0104244	0.00162201	0.000542586
7.90921	48561.3	27455.6	162.863	360.601	24.4268	13.5819	24.3425	0.900654	0.00440135	0.0099464	0.00150073	0.000464251
7.91921	50384.9	28319.1	166.964	383.477	26.9467	14.7772	25.7466	0.68907	0.00312823	0.00941041	0.00137082	0.000405412
7.92921	53869.9	29902.9	185.613	420.424	29.669	15.912	27.2237	0.562049	0.00205357	0.00881798	0.00124297	0.000365298
7.93921	59105.4	32252.7	219.453	470.882	32.6121	16.9455	28.7682	0.520947	0.00120697	0.00817317	0.00112876	0.000342527
7.9492	66066.9	35362.5	268.289	533.306	35.7884	17.8417	30.3569	0.561818	0.000604325	0.00748221	0.00103998	0.000335166
7.9592	74608.1	39171	331.056	605.229	39.2	18.5717	31.9494	0.675714	0.000247677	0.0067539	0.00098832	0.000340935
7.9692	84470.2	43565.3	405.881	683.436	42.8342	19.1151	33.4894	0.84943	0.000126097	0.00599957	0.000984503	0.000357395
7.9792	95290.9	48384.2	490.174	764.166	46.6602	19.461	34.908	1.06642	0.000217153	0.00523277	0.00103792	0.000382066
7.9892	106624	53427.1	580.739	843.346	50.6255	19.608	36.1282	1.30797	0.000489092	0.00446876	0.00115592	0.000412729
7.9992	117967	58467.6	673.974	916.869	54.656	19.5639	37.0702	1.55446	0.000903362	0.00372377	0.0013433	0.000447451
8.0092	128790	63263.5	766.057	980.858	58.6518	19.3447	37.6586	1.78673	0.00141746	0.00301443	0.00160194	0.000484739
8.0192	138564	67573.3	853.13	1031.93	62.5015	18.9731	37.8263	1.98743	0.00198783	0.00235657	0.00193038	0.000523677
8.0292	146798	71172.5	931.587	1067.38	66.0657	18.4771	37.5241	2.14176	0.00257251	0.00176474	0.00232354	0.000563847
8.0392	153067	73865.5	998.18	1085.35	69.2026	17.887	36.7232	2.23882	0.00313359	0.00125089	0.00277291	0.000605372
8.04919	157037	75497.6	1050.24	1084.94	71.7649	17.2345	35.4187	2.27208	0.00363913	0.000823954	0.00326652	0.000648825
8.05919	158488	75967.8	1085.8	1066.25	73.6159	16.5504	33.633	2.23956	0.00406454	0.000489122	0.00378928	0.000695084
8.06919	157328	75232	1103.7	1030.32	74.633	15.8623	31.4147	2.14398	0.00439331	0.00024746	0.00432355	0.000745197
8.07919	153592	73308.6	1103.61	979.071	74.7218	15.194	28.8369	1.99237	0.00461727	9.58151e-05	0.00484986	0.000800204
8.08919	147449	70275.8	1086.05	915.111	73.8244	14.5636	25.9938	1.79553	0.00473624	2.69024e-05	0.00534762	0.000860987
8.09919	139184	66267.5	1052.3	841.582	71.9254	13.9838	22.9954	1.56701	0.0047569	2.97466e-05	0.00579627	0.00092811
8.10919	129185	61465.6	1004.3	761.943	69.0576	13.4604	19.9612	1.32229	0.0046916	9.03193e-05	0.00617605	0.00100164
8.11919	117912	56087.5	944.567	679.714	65.3055	12.9944	17.0126	1.07752	0.00455689	0.000192436	0.00646922	0.00108103
8.12919	105878	50375.3	875.965	598.286	60.8014	12.5803	14.2663	0.848461	0.00437174	0.000318782	0.00666098	0.00116519
8.13919	93611.4	44578	801.568	520.71	55.7206	12.2091	11.8274	0.649355	0.00415566	0.000452065	0.00674033	0.0012523
8.14918	81626.6	38939.8	724.463	449.538	50.2746	11.8677	9.78348	0.492061	0.0039273	0.000576211	0.00670073	0.00134006
8.15918	70395.9	33684.3	647.578	386.698	44.6977	11.5416	8.19962	0.385256	0.00370295	0.000677472	0.00654069	0.00142571
8.16918	60322.8	29002.7	573.541	333.431	39.233	11.215	7.11581	0.333969	0.00349571	0.000745522	0.00626418	0.00150611
8.17918	51720.8	25042.3	504.542	290.273	34.1181	10.8728	6.54526	0.33934	0.00331452	0.000774058	0.00588027	0.00157807
8.18918	44798.9	21901.8	442.233	257.082	29.5679	10.502	6.47518	0.398673	0.00316425	0.00076153	0.00540293	0.00163842
8.19918	39657	19625	387.727	233.119	25.7615	10.091	6.86853	0.505736	0.00304511	0.00071136	0.00485068	0.00168438
8.20918	36281.8	18202.2	341.534	217.168	22.8278	9.63228	7.66805	0.651295	0.00295384	0.000631667	0.00424556	0.00171356
8.21918	34557.2	17572.9	303.618	207.655	20.8364	9.12182	8.80023	0.823883	0.00288396	0.000535011	0.00361203	0.00172426
8.22918	34275.9	17632.9	273.459	202.807	19.7928	8.55939	10.1813	1.01056	0.00282677	0.000437431	0.00297576	0.00171555
8.23918	35159.6	18242	250.14	200.807	19.6366	7.94853	11.7222	1.19792	0.00277244	0.00035751	0.00236245	0.0016874
8.24918	36880.1	19236.3	232.47	199.923	20.246	7.29608	13.3338	1.37296	0.00271088	0.000315025	0.00179633	0.00164063
8.25917	39084.5	20440	219.09	198.632	21.4462	6.61205	14.9321	1.52395	0.00263298	0.000329467	0.00129902	0.00157681
8.26917	41420.4	21677.3	208.609	195.712	23.0233	5.90832	16.4415	1.64111	0.00253133	0.000418622	0.000888374	0.00149841
8.27917	43557.8	22784.7	199.711	190.299	24.7396	5.1984	17.7979	1.71723	0.00240093	0.00059704	0.000577456	0.00140834
8.28917	45211.7	23621	191.252	181.912	26.3524	4.49641	18.9505	1.74801	0.00223959	0.000874763	0.000373965	0.00131008
8.29917	46156.9	24075.7	182.341	170.45	27.6331	3.81623	19.8613	1.73219	0.00204821	0.00125628	0.000279888	0.00120727
8.30917	46240.1	24075.2	172.376	156.148	28.3855	3.17079	20.5057	1.67145	0.00183061	0.00173977	0.000291411	0.00110364
8.31917	45384.6	23585.4	161.078	139.526	28.4614	2.57167	20.8707	1.57024	0.00159331	0.00231665	0.00039929	0.00100275
8.32917	43591.6	22611.6	148.465	121.31	27.7737	2.02813	20.9527	1.43523	0.00134494	0.00297182	0.000589428	0.000907879
8.33917	40933.6	21196.3	134.825	102.343	26.3027	1.54727	20.7565	1.27479	0.00109565	0.00368402	0.000843825	0.000821809
8.34916	37545.2	19413.2	120.662	83.5102	24.0998	1.13355	20.2926	1.09838	0.000856386	0.00442683	0.00114167	0.000746833
8.35916	33606.7	17360.4	106.612	65.6491	21.2823	0.789169	19.5757	0.91574	0.000638027	0.00517003	0.00146067	0.000684623
8.36916	29332.3	15151.7	93.3779	49.4927	18.025	0.513727	18.6243	0.736331	0.00045051	0.00588111	0.00177833	0.000636257
8.37916	24948	12907.4	81.6414	35.6147	14.547	0.304996	17.4585	0.568668	0.000302308	0.00652703	0.00207325	0.000602179
8.38916	20676	10744.5	71.9892	24.3988	11.0923	0.159084	16.1029	0.419837	0.000199788	0.00707658	0.0023266	0.000582382
8.39916	16718.8	8768.83	64.8543	16.0296	7.9106	0.0710202	14.5847	0.295127	0.000146752	0.00750173	0.00252283	0.000576325
8.40916	13244.8	7067.15	60.4699	10.4961	5.23702	0.0352299	12.9358	0.197788	0.000144219	0.00777966	0.00265068	0.000583105
8.41916	10379.2	5702.09	58.848	7.61637	3.27085	0.0460188	11.1938	0.128984	0.000190373	0.00789429	0.00270382	0.000601572
8.42916	8196.53	4708.54	59.7784	7.07112	2.15935	0.0980349	9.40278	0.0878892	0.00028066	0.00783737	0.00268076	0.000630343
8.43916	6719.43	4092.72	62.8458	8.44398	1.98441	0.186592	7.61349	0.071907	0.000408157	0.00760919	0.00258501	0.000667841
8.44915	5920.27	3833.31	67.4689	11.2665	2.7548	0.307945	5.88331	0.0770114	0.000563948	0.00721859	0.00242445	0.00071245
8.45915	5726.56	3884.69	72.9544	15.0601	4.40444	0.459316	4.27512	0.0981734	0.000737741	0.00668263	0.00221073	0.00076247
8.46915	6029.9	4181.77	78.5568	19.3724	6.79711	0.638914	2.85512	0.12981	0.000918413	0.00602616	0.00195831	0.000816102
8.47915	6696.66	4646.4	83.5445	23.8075	9.73662	0.845731	1.68997	0.166273	0.0010948	0.00527955	0.00168337	0.0008715
8.48915	7580.02	5194.07	87.2607	28.0449	12.9825	1.07922	0.842993	0.202247	0.0012562	0.00447802	0.00140257	0.000926787
8.49915	8532.02	5741.07	89.1824	31.8463	16.2692	1.33885	0.370173	0.233187	0.00139307	0.00365864	0.00113206	0.000979965
8.50915	9415.46	6211.01	88.9577	35.0583	19.3276	1.62373	0.315357	0.255556	0.00149751	0.00285892	0.000886248	0.00102903
8.51915	10113.4	6540.51	86.4338	37.6019	21.9076	1.93196	0.706235	0.267059	0.00156363	0.00211407	0.000676924	0.001072
8.52915	10536.3	6683.65	81.6641	39.4584	23.7981	2.26058	1.55052	0.266672	0.00158794	0.00145539	0.0005126	0.00110681
8.53915	10628.4	6614.48	74.8954	40.6532	24.8441	2.60438	2.83326	0.254685	0.00156932	0.000908015	0.000398012	0.00113164
8.54914	10368.2	6328.13	66.5454	41.2362	24.9603	2.95657	4.51555	0.232519	0.00150918	0.00048988	0.000334076	0.00114483
8.55914	9767.6	5839.77	57.155	41.264	24.1371	3.30791	6.53451	0.202542	0.00141121	0.000210557	0.000317891	0.00114495
8.56914	8868.75	5182.36	47.3382	40.7916	22.4412	3.64747	8.80527	0.167791	0.00128112	7.09885e-05	0.000343267	0.00113111
8.57914	7737.77	4402.69	37.7261	39.8592	20.0098	3.96252	11.2247	0.131664	0.00112628	6.36003e-05	0.000401308	0.00110283
8.58914	6457.48	3556.51	28.9082	38.4927	17.0385	4.23929	13.6759	0.0976074	0.000955396	0.000173063	0.000481265	0.00106026
8.59914	5118.67	2703.44	21.3806	36.706	13.7643	4.46347	16.0359	0.0688115	0.000777687	0.000377544	0.000571531	0.00100416
8.60914	3812.07	1901.34	15.5061	34.5044	10.4453	4.62134	18.1811	0.0479419	0.00060268	0.000650337	0.000660493	0.000935972
8.61914	2620.19	1201.32	11.4825	31.8981	7.33812	4.70073	19.9966	0.0369385	0.000439523	0.000961833	0.000737667	0.000857703
8.62914	1610.83	643.748	9.33396	28.9092	4.67679	4.69195	21.3829	0.0368773	0.000296502	0.00128166	0.000794386	0.000771864
8.63914	831.923	254.895	8.91286	25.5814	2.65214	4.58908	22.2619	0.0479025	0.000180659	0.00158079	0.000824534	0.000681391
8.64913	308.828	45.4521	9.9212	21.9867	1.39666	4.39052	22.5837	0.0692555	9.7391e-05	0.00183361	0.000825044	0.00058936
8.65913	43.5784	10.1825	11.946	18.2302	0.973281	4.09989	22.3289	0.0993626	5.02388e-05	0.00201941	0.00079601	0.000498872
8.66913	16.1778	129.146	14.503	14.4465	1.37123	3.72646	21.5112	0.135967	4.07325e-05	0.00212412	0.000740716	0.000412848
8.67913	188.063	370.157	17.0902	10.7936	2.50815	3.28508	20.1763	0.17636	6.83655e-05	0.00214072	0.000665252	0.000333793
8.68913	506.813	692.28	19.2377	7.44442	4.23858	2.79629	18.3989	0.217576	0.000130667	0.00206971	0.000578053	0.000263641
8.69913	912.004	1050.08	20.5616	4.56949	6.3681	2.28482	16.2788	0.256598	0.00022342	0.00191892	0.000489028	0.000203668
8.70913	1341.41	1397.91	20.7968	2.32581	8.67206	1.77954	13.9329	0.290688	0.000340897	0.00170243	0.000408908	0.000154381
8.71913	1737.16	1694.49	19.8315	0.837631	10.9161	1.31106	11.4888	0.317476	0.000476282	0.00143956	0.000348094	0.000115552
8.72913	2051.05	1906.55	17.7169	0.184266	12.8784	0.910653	9.07556	0.335173	0.000622021	0.0011531	0.000315987	8.62945e-05
8.73913	2248.77	2011.97	14.663	0.389025	14.3704	0.608016	6.81557	0.342657	0.000770305	0.000867273	0.000319973	6.52107e-05
8.74912	2312.69	2001.48	11.018	1.41338	15.2533	0.429401	4.81634	0.339551	0.00091343	0.000605969	0.000364918	5.0583e-05
8.75912	2242.83	1879.36	7.23408	3.15668	15.4521	0.39563	3.16435	0.326211	0.00104428	0.000390643	0.000452524	4.062e-05
8.76912	2055.88	1662.64	3.81816	5.46174	14.9606	0.520492	1.91939	0.303654	0.00115665	0.000238665	0.000581287	3.37222e-05
8.77912	1783.05	1379.26	1.27988	8.12613	13.8431	0.809253	1.11196	0.273484	0.0012456	0.000161937	0.000746346	2.87129e-05
8.78912	1466.14	1064.87	0.0736689	10.918	12.2256	1.25783	0.742199	0.237712	0.00130751	0.000165846	0.000939875	2.50264e-05
8.79912	1152.67	759.264	0.546356	13.5951	10.2861	1.85242	0.781452	0.198642	0.00134045	0.000249012	0.00115153	2.28963e-05
8.80912	890.664	502.071	2.89237	15.9256	8.23449	2.56968	1.17556	0.158657	0.00134395	0.000403249	0.00136923	2.33682e-05
8.81912	723.314	328.604	7.12259	17.7085	6.29312	3.3779	1.85014	0.120069	0.00131914	0.000614382	0.0015799	2.82901e-05
8.82912	684.088	266.071	13.0506	18.7904	4.67404	4.2383	2.71699	0.084946	0.00126837	0.000863353	0.00177055	4.01547e-05
8.83912	792.978	330.481	20.2976	19.0812	3.55811	5.10734	3.68136	0.0549978	0.00119521	0.00112779	0.00192909	6.18936e-05
8.84911	1053.81	524.692	28.3172	18.5594	3.07568	5.93911	4.64918	0.0314759	0.00110403	0.00138397	0.00204541	9.6537e-05
8.85911	1453.53	837.584	36.4387	17.2768	3.29325	6.68851	5.53418	0.0151098	0.000999659	0.00160862	0.00211195	0.000146872
8.86911	1962.85	1244.87	43.9262	15.3519	4.20527	7.3138	6.26379	0.00609742	0.000887127	0.00178106	0.00212447	0.000215037
8.87911	2538.79	1710.78	50.049	12.9598	5.73301	7.77984	6.78345	0.00412596	0.000771507	0.00188488	0.0020822	0.000302202
8.88911	3128.54	2191.52	54.1592	10.317	7.73109	8.06094	7.05975	0.00843227	0.000657283	0.0019095	0.00198824	0.000408183
8.89911	3674.66	2639.27	55.7598	7.66054	10	8.14237	7.08138	0.0178895	0.000548475	0.00185115	0.00184921	0.000531263
8.90911	4120.66	3007.03	54.5783	5.22806	12.3052	8.02221	6.85826	0.0311213	0.000448306	0.00171324	0.00167485	0.000668108
8.91911	4417.29	3253.37	50.6162	3.23562	14.4	7.71226	6.41877	0.0466225	0.000359289	0.00150657	0.0014775	0.000813827
8.92911	4528.06	3347.4	44.1817	1.86052	16.0492	7.23698	5.8064	0.062877	0.000283132	0.00124835	0.00127117	0.000962149
8.93911	4434.05	3272.64	35.8979	1.22452	17.056	6.63355	5.07442	0.0784901	0.000220918	0.000961245	0.00107073	0.00110579
8.9491	4137.28	3030.02	26.686	1.38554	17.2821	5.94889	4.28081	0.0922814	0.000173277	0.000671622	0.000890855	0.00123697
8.9591	3663.34	2639.43	17.7234	2.33323	16.6666	5.23675	3.48293	0.103377	0.000140569	0.000407566	0.000744998	0.001348
8.9691	3059.78	2139.91	10.3692	3.99236	15.236	4.55544	2.73267	0.111264	0.00012321	0.000196721	0.000644599	0.001432
8.9791	2395.44	1587.75	6.07993	6.23098	13.1086	3.96283	2.07279	0.115822	0.000121899	6.41877e-05	0.000598217	0.00148342
8.9891	1755.92	1053.41	6.30127	8.87373	10.4885	3.51252	1.53395	0.117327	0.000137899	3.03907e-05	0.000611027	0.00149879
8.9991	1237.78	616.726	12.3565	11.7195	7.65373	3.25042	1.13362	0.116422	0.000173223	0.000109425	0.000684445	0.00147715
9.0091	941.823	361.256	25.3333	14.5597	4.93496	3.21079	0.876348	0.11408	0.000230822	0.000307714	0.000816048	0.0014204
9.0191	965.297	367.723	45.984	17.1978	2.68998	3.41362	0.754916	0.11152	0.000314595	0.000623271	0.000999734	0.00133337
9.0291	1394.02	707.528	74.6399	19.4663	1.27363	3.86244	0.753156	0.110136	0.000429462	0.00104564	0.00122612	0.00122386
9.0391	2295.13	1436.23	111.141	21.2387	1.00766	4.54352	0.849129	0.111391	0.000581127	0.00155626	0.00148312	0.00110201
9.04909	3710.18	2588.58	154.832	22.4417	2.15082	5.42645	1.01889	0.116748	0.000775865	0.00212963	0.00175684	0.000980107
9.05909	5650.69	4173.98	204.546	23.056	4.87413	6.46476	1.24005	0.12755	0.00102032	0.00273488	0.0020322	0.000871372
9.06909	8095.44	6174.42	258.658	23.1155	9.24202	7.59941	1.4949	0.144951	0.00132096	0.00333797	0.0022943	0.000789437
9.07909	10989.9	8544.06	315.168	22.701	15.2022	8.76156	1.77278	0.169842	0.00168367	0.00390365	0.00252881	0.000746959
9.08909	14248	11210.9	371.802	21.9279	22.5842	9.87774	2.0713	0.202788	0.00211334	0.00439827	0.00272319	0.000754913
9.09909	17756.9	14080.8	426.159	20.9328	31.1081	10.874	2.39654	0.244007	0.00261329	0.00479172	0.00286739	0.000821446
9.10909	21383.7	17042.5	475.854	19.8584	40.4031	11.6815	2.76164	0.293329	0.00318481	0.00505986	0.00295402	0.000951153
9.11909	24982.8	19975.7	518.693	18.8394	50.0329	12.2412	3.18481	0.350185	0.0038268	0.00518606	0.00297932	0.00114458
9.12909	28408	22757.8	552.796	17.9829	59.5295	12.508	3.68623	0.41368	0.00453559	0.00516239	0.00294259	0.00139782
9.13909	31518.3	25274.4	576.79	17.3714	68.426	12.4553	4.28426	0.482516	0.00530454	0.00499024	0.00284664	0.0017027
9.14909	34192.1	27425.9	589.874	17.0455	76.2945	12.0766	4.99207	0.55515	0.00612406	0.00468031	0.00269727	0.00204711
9.15908	36334.1	29135.1	591.925	17.0073	82.7818	11.3868	5.81408	0.629783	0.00698189	0.00425186	0.0025027	0.00241572
9.16908	37882.7	30355	583.527	17.2253	87.6363	10.4229	6.74338	0.704435	0.00786291	0.00373147	0.00227318	0.00279089
9.17908	38815.6	31071.4	565.979	17.6401	90.7289	9.24163	7.76019	0.77703	0.00874985	0.00315117	0.00202009	0.003154
9.18908	39152.6	31305.1	541.219	18.1769	92.0664	7.91646	8.83147	0.845446	0.00962411	0.0025465	0.0017554	0.00348667
9.19908	38954.3	31112.1	511.738	18.7578	91.7896	6.53394	9.91191	0.907626	0.0104654	0.00195392	0.00149071	0.00377217
9.20908	38319.6	30579.3	480.438	19.3153	90.1676	5.18865	10.9475	0.961601	0.0112534	0.00140845	0.00123688	0.00399655
9.21908	37379.8	29820.1	450.47	19.8018	87.5725	3.97715	11.8768	1.00561	0.0119683	0.000941593	0.00100314	0.00415009
9.22908	36289.4	28966.6	425.023	20.2021	84.4544	2.99252	12.6386	1.03814	0.012591	0.000579079	0.000796884	0.00422749
9.23908	35215.1	28159.9	407.133	20.5347	81.3038	2.31829	13.1748	1.05797	0.0131047	0.000339356	0.000623328	0.00422913
9.24907	34325.8	27540.4	399.494	20.8544	78.6111	2.02343	13.4368	1.06428	0.013495	0.000232568	0.00048534	0.00416037
9.25907	33778.4	27238.6	404.252	21.2457	76.8305	2.15795	13.3898	1.05659	0.0137508	0.000260002	0.000383537	0.00403177
9.26907	33707.9	27363.6	422.876	21.8163	76.3392	2.74963	13.017	1.03486	0.0138647	0.000414268	0.000316473	0.0038581
9.27907	34216	27995	456.023	22.6816	77.405	3.80253	12.3221	0.999531	0.0138333	0.000680007	0.000280889	0.00365731
9.28907	35363.8	29177.2	503.493	23.9513	80.168	5.2964	11.3303	0.951415	0.0136573	0.0010351	0.00027212	0.00344923
9.29907	37163.8	30914.4	564.193	25.7108	84.6234	7.188	10.0874	0.891788	0.0133421	0.00145238	0.000284583	0.0032538
9.30907	39580	33168.4	636.189	28.0097	90.6178	9.41349	8.65758	0.82232	0.0128963	0.00190152	0.000312266	0.00309006
9.31907	42527.4	35860.2	716.802	30.8473	97.8649	11.8929	7.11893	0.745	0.0123332	0.00235116	0.000349092	0.00297395
9.32907	45875.9	38875.2	802.745	34.163	105.961	14.5338	5.55796	0.662159	0.0116686	0.00277119	0.000389407	0.00291749
9.33907	49458.8	42067.6	890.304	37.8365	114.416	17.2381	4.06324	0.576313	0.0109211	0.00313451	0.00042829	0.0029276
9.34906	53082.9	45271.9	975.529	41.6891	122.693	19.9063	2.71859	0.490152	0.0101114	0.00341884	0.000461794	0.0030055
9.35906	56539.1	48311.8	1054.5	45.4932	130.244	22.4443	1.59648	0.406387	0.00926119	0.00360789	0.000487088	0.00314647
9.36906	59618	51011.5	1123.5	48.989	136.557	24.7671	0.752237	0.327693	0.00839218	0.00369257	0.000502515	0.00334033
9.37906	62123.1	53208.4	1179.25	51.9038	141.188	26.8042	0.219475	0.256641	0.00752584	0.00367088	0.000507529	0.00357205
9.38906	63882.9	54763.8	1219.11	53.9735	143.8	28.5027	0.00737917	0.195497	0.0066821	0.00354793	0.00050258	0.00382287
9.39906	64764.2	55571.3	1241.19	54.9682	144.188	29.8275	0.0998326	0.146236	0.00587873	0.00333558	0.000488862	0.00407192
9.40906	64681.3	55564.7	1244.5	54.7151	142.289	30.7638	0.456851	0.110408	0.00513105	0.00305094	0.000468192	0.00429788
9.41906	63601.2	54723.7	1228.95	53.1179	138.191	31.3156	1.01794	0.0890755	0.00445135	0.00271521	0.000442645	0.00448047
9.42906	61548.4	53072.9	1195.36	50.1709	132.124	31.5036	1.70734	0.082766	0.00384791	0.00235224	0.000414374	0.00460259
9.43906	58603.3	50684.6	1145.42	45.9699	124.44	31.3631	2.44066	0.0914436	0.00332596	0.00198656	0.000385384	0.00465134
9.44905	54897.2	47670.8	1081.54	40.7085	115.584	30.9391	3.13242	0.114491	0.00288691	0.00164209	0.000357349	0.0046196
9.45905	50604.8	44178	1006.73	34.6731	106.065	30.2833	3.70378	0.150742	0.00252883	0.00134037	0.00033151	0.00450641
9.46905	45934.3	40378.3	924.391	28.227	96.4142	29.4489	4.08986	0.198506	0.00224659	0.0010996	0.000308638	0.00431723
9.47905	41112.5	36455.8	838.117	21.7863	87.1434	28.4887	4.24611	0.255648	0.00203273	0.000933312	0.000288923	0.00406408
9.48905	36372.2	32598.6	751.488	15.794	78.7107	27.4489	4.1529	0.319665	0.0018775	0.00085015	0.000272215	0.00376421
9.49905	31937.2	28984.4	667.863	10.6876	71.488	26.3689	3.81802	0.387801	0.00176996	0.000853414	0.000257946	0.00343924
9.50905	28007.1	25770.5	590.181	6.8683	65.7342	25.2778	3.27721	0.457155	0.00169846	0.000941417	0.00024532	0.00311326
9.51905	24746.7	23083.7	520.836	4.66942	61.5818	24.195	2.59165	0.524825	0.00165137	0.00110775	0.000233481	0.00281137
9.52905	22274.6	21013.9	461.542	4.33208	59.0314	23.1293	1.84365	0.588024	0.00161779	0.00134199	0.000221616	0.00255733
9.53905	20656.7	19608.1	413.276	5.98322	57.9557	22.0806	1.13021	0.6442	0.00158799	0.00163093	0.000209062	0.00237202
9.54904	19903.5	18869.2	376.266	9.6246	58.1166	21.041	0.554899	0.691212	0.00155429	0.00195919	0.000195451	0.00227149
9.55904	19969.7	18757.2	350.02	15.1295	59.1884	19.9996	0.219073	0.727277	0.00151084	0.0023105	0.000180699	0.0022658
9.56904	20759	19192.6	333.408	22.2482	60.7867	18.9412	0.212964	0.751248	0.00145439	0.00266871	0.000165095	0.00235805
9.57904	22131.4	20063.8	324.77	30.6225	62.5034	17.8523	0.607084	0.762505	0.00138413	0.00301861	0.000149232	0.00254401
9.58904	23913.6	21235	322.084	39.8092	63.9394	16.7218	1.44521	0.761037	0.00130151	0.00334658	0.000133944	0.00281218
9.59904	25911.3	22556.2	323.109	49.3074	64.7391	15.5438	2.73903	0.747438	0.0012102	0.00364138	0.000120244	0.00314474
9.60904	27923.1	23874.7	325.57	58.5922	64.6162	14.3182	4.46539	0.722807	0.00111562	0.00389414	0.000109229	0.00351858
9.61904	29754.2	25044.3	327.322	67.1483	63.3763	13.0521	6.56612	0.688735	0.00102453	0.00409854	0.000101907	0.00390692
9.62904	31229.4	25936.5	326.508	74.5057	60.9298	11.7589	8.95057	0.647201	0.000944296	0.00425107	9.91533e-05	0.00428125
9.63904	32204.8	26448.6	321.647	80.2564	57.2917	10.4582	11.501	0.600383	0.000882582	0.00435017	0.00010156	0.00461347
9.64903	32576.2	26508.6	311.778	84.1059	52.5865	9.17329	14.0797	0.550616	0.00084645	0.00439637	0.000109441	0.00487761
9.65903	32286.1	26080.3	296.466	85.8623	47.0234	7.9302	16.5387	0.500231	0.000841941	0.00439184	0.000122683	0.00505208
9.66903	31324.9	25164.7	275.825	85.4604	40.8821	6.75495	18.7302	0.451385	0.000873527	0.00433989	0.000140868	0.00512077
9.67903	29731.2	23797.6	250.478	82.9595	34.4861	5.67141	20.5165	0.405966	0.000943667	0.00424442	0.000163217	0.00507453
9.68903	27586.8	22046.4	221.499	78.5331	28.1738	4.69933	21.7812	0.365515	0.00105254	0.00410996	0.000188682	0.00491166
9.69903	25009.4	20003.4	190.302	72.457	22.2702	3.85262	22.4373	0.331096	0.00119796	0.00394116	0.000216048	0.00463775
9.70903	22143.6	17778.7	158.52	65.0856	17.0613	3.13809	22.4344	0.303312	0.00137527	0.00374276	0.000244048	0.00426549
9.71903	19148.6	15491.6	127.875	56.8252	12.7709	2.55549	21.7638	0.282211	0.00157767	0.00351936	0.000271406	0.00381354
9.72903	16187.7	13260.9	100.031	48.112	9.5447	2.09751	20.4592	0.267392	0.00179637	0.0032757	0.000297055	0.00330507
9.73903	13414.6	11196.9	76.4803	39.3726	7.44234	1.75018	18.5955	0.257999	0.00202123	0.00301637	0.00032014	0.00276624
9.74902	10963.8	9393.38	58.4104	31.0083	6.43493	1.49538	16.2855	0.252829	0.00224135	0.00274613	0.000340148	0.00222399
9.75902	8941.71	7921.71	46.6364	23.3676	6.41202	1.31204	13.6716	0.250431	0.00244542	0.00247009	0.000356932	0.00170448
9.76902	7418.68	6825.98	41.5327	16.7266	7.19419	1.17836	10.9175	0.249222	0.002623	0.00219341	0.000370659	0.00123106
9.77902	6426.67	6121.55	43.0152	11.2806	8.55182	1.07441	8.19736	0.247622	0.00276444	0.00192163	0.00038188	0.000822803
9.78902	5957.88	5794.86	50.5562	7.13593	10.2269	0.983577	5.68496	0.244184	0.00286223	0.00166051	0.000391422	0.00049343
9.79902	5967.19	5805.9	63.2263	4.31171	11.9565	0.894517	3.54163	0.237711	0.00291103	0.00141593	0.0004003	0.000250527
9.80902	6376.92	6092.26	79.7675	2.74647	13.4954	0.802081	1.90606	0.227329	0.00290844	0.0011938	0.000409608	9.53376e-05
9.81902	7084.75	6575.41	98.698	2.3092	14.6375	0.707469	0.885793	0.212617	0.00285498	0.000999695	0.000420425	2.30867e-05
9.82902	7972.26	7166.86	118.413	2.81476	15.231	0.618218	0.549951	0.193584	0.00275445	0.000838873	0.000433662	2.36649e-05
9.83902	8915.1	7776.05	137.311	4.04139	15.1903	0.546827	0.925318	0.1707	0.00261348	0.00071586	0.000450019	8.28009e-05
9.84901	9792.68	8317.04	153.897	5.74884	14.4989	0.509326	1.99493	0.144881	0.00244168	0.000634227	0.000469814	0.000183416
9.85901	10497.7	8715.44	166.894	7.69643	13.2085	0.523024	3.69973	0.1174	0.00225075	0.000596685	0.000493036	0.000307234
9.86901	10944	8913.37	175.325	9.65873	11.4311	0.604237	5.94283	0.0897922	0.00205414	0.000604629	0.000519232	0.000436334
9.87901	11072.5	8873.44	178.569	11.4395	9.3252	0.765873	8.59605	0.0637636	0.00186622	0.000658409	0.000547587	0.000554641
9.88901	10854.5	8580.9	176.395	12.8811	7.07889	1.01554	11.5089	0.0410498	0.00170137	0.000757137	0.000576862	0.000649208
9.89901	10292.9	8043.39	168.961	13.872	4.89135	1.3534	14.5173	0.0232514	0.00157339	0.000899062	0.000605677	0.000711171
9.90901	9420.18	7289.48	156.793	14.347	2.95261	1.7716	17.4554	0.0117473	0.00149439	0.00108151	0.000632392	0.00073623
9.91901	8294.58	6365.38	140.722	14.289	1.42626	2.2537	20.1648	0.00756069	0.00147425	0.00130127	0.000655352	0.00072488
9.92901	6994.03	5330.13	121.82	13.7232	0.433894	2.77545	22.5033	0.011266	0.00151981	0.0015547	0.000673046	0.000682079
9.93901	5608.57	4250.15	101.306	12.7117	0.044842	3.30601	24.3545	0.0229388	0.00163461	0.00183798	0.000684085	0.000616591
9.949	4232.2	3193.47	80.4506	11.3448	0.270481	3.81028	25.6317	0.0421251	0.00181831	0.00214727	0.000687539	0.000539984
9.959	2954.86	2223.77	60.4804	9.73212	1.06438	4.25151	26.2839	0.0678594	0.00206682	0.00247881	0.00068279	0.000465461
9.969	1854.72	1395.2	42.4913	7.99395	2.32774	4.59447	26.295	0.0987244	0.00237235	0.00282899	0.000669763	0.0004065
9.979	991.906	748.225	27.3693	6.25174	3.91964	4.80822	25.6847	0.132932	0.00272369	0.00319421	0.000648964	0.000375628
9.989	404.123	306.935	15.7393	4.62062	5.67126	4.87019	24.5042	0.168434	0.00310685	0.00357077	0.000621258	0.000383096
9.999	104.248	77.4285	7.92979	3.20245	7.40202	4.7675	22.8319	0.203073	0.00350575	0.00395466	0.000588084	0.000436011
10.009	80.3119	48.3108	3.96654	2.08062	8.93682	4.4997	20.7671	0.234716	0.00390288	0.0043414	0.000551299	0.00053757
10.019	297.562	192.383	3.58559	1.31633	10.1227	4.07905	18.4223	0.261403	0.00428055	0.00472584	0.000512938	0.000686795
10.029	702.661	469.844	6.27335	0.946381	10.843	3.53105	15.9163	0.281484	0.00462133	0.00510167	0.000475242	0.000878526
10.039	1229.34	832.424	11.3209	0.982187	11.0281	2.89287	13.3658	0.293718	0.00490942	0.00546164	0.000440479	0.00110382
10.049	1805.06	1228.14	17.8944	1.41053	10.6607	2.21121	10.88	0.297391	0.005131	0.00579734	0.000410787	0.00135061
10.059	2358.2	1606.22	25.108	2.19481	9.77873	1.53963	8.55389	0.292305	0.00527564	0.00609934	0.000388031	0.00160485
10.069	2824.81	1921.95	32.1012	3.27778	8.46975	0.933988	6.4641	0.27884	0.00533579	0.00635761	0.000373714	0.00185149
10.079	3154.43	2140.44	38.1098	4.585	6.86359	0.449135	4.66635	0.257897	0.00530811	0.0065613	0.000368858	0.00207562
10.089	3314.85	2239.8	42.524	6.02901	5.11976	0.134166	3.1941	0.230831	0.0051928	0.00670018	0.00037397	0.00226407
10.099	3294.61	2212.71	44.9298	7.51403	3.41207	0.0285927	2.059	0.19935	0.00499408	0.00676452	0.000389008	0.00240583
10.109	3103.73	2066.72	45.1359	8.94141	1.91312	0.158965	1.25261	0.165405	0.00471964	0.00674614	0.000413304	0.00249344
10.119	2772.14	1823.02	43.1752	10.2145	0.777433	0.53625	0.749276	0.131025	0.00437999	0.00663883	0.00044576	0.00252324
10.129	2346.25	1513.93	39.2917	11.2454	0.127665	1.15449	0.509819	0.0982088	0.00398818	0.00643947	0.000484743	0.00249575
10.139	1883.87	1179.42	33.9041	11.9601	0.0427408	1.99039	0.485867	0.0687788	0.00355897	0.00614822	0.000528281	0.00241555
10.149	1448.13	862.616	27.5618	12.3033	0.550399	3.00473	0.624093	0.0442703	0.00310795	0.00576908	0.000574206	0.00229078
10.159	1100.4	605.447	20.8828	12.2445	1.62434	4.14424	0.870403	0.0258373	0.00265093	0.00530992	0.000620146	0.00213271
10.169	893.829	443.853	14.4968	11.7796	3.18605	5.34526	1.17365	0.014213	0.00220304	0.00478292	0.000663736	0.0019545
10.179	867.386	404.005	8.98274	10.9349	5.11131	6.53799	1.48869	0.00968414	0.00177832	0.00420359	0.000702736	0.00177051
10.189	1041.2	499.176	4.81535	9.76641	7.24149	7.65098	1.77842	0.0121244	0.00138898	0.00359093	0.00073517	0.00159493
10.199	1413.77	728.043	2.32431	8.35912	9.39658	8.61637	2.01532	0.0210356	0.00104518	0.00296608	0.000759352	0.00144096
10.209	1961.38	1074.31	1.66677	6.82326	11.3919	9.37457	2.18167	0.0356394	0.000754766	0.0023518	0.000773995	0.00131974
10.219	2639.73	1507.96	2.81806	5.28931	13.0536	9.87846	2.26926	0.0549879	0.0005231	0.00177092	0.000778314	0.00123949
10.229	3387.74	1987.9	5.57983	3.89946	14.2353	10.0971	2.27833	0.0780663	0.000353276	0.00124554	0.000771915	0.00120531
10.239	4133.09	2465.71	9.60616	2.7999	14.8303	10.0177	2.21593	0.103923	0.000246194	0.000795709	0.000754989	0.00121868
10.249	4799.95	2890.91	14.4428	2.13103	14.7827	9.64694	2.09418	0.131762	0.000200784	0.000438297	0.0007281	0.00127751
10.259	5316.43	3215.94	19.5785	2.01611	14.0925	9.01041	1.92823	0.16103	0.000214389	0.000186086	0.000692241	0.00137644
10.269	5623.14	3401.79	24.5024	2.55227	12.817	8.15139	1.7343	0.191476	0.000283064	4.71485e-05	0.000648757	0.00150743
10.279	5680.33	3422.84	28.76	3.80182	11.0672	7.12759	1.52804	0.223153	0.000401782	2.43662e-05	0.00059927	0.00166036
10.289	5474.65	3271.3	32.0096	5.78509	9.00001	6.00768	1.32323	0.25642	0.000564783	0.000115338	0.000545517	0.00182379
10.299	5022.82	2959.56	34.0626	8.47725	6.80557	4.86673	1.13083	0.291855	0.000765711	0.000312589	0.000489396	0.0019859
10.309	4373.54	2521.49	34.9143	11.8057	4.69299	3.78111	0.958471	0.330213	0.000997681	0.000604094	0.000432737	0.00213532
10.319	3606.48	2011.65	34.7582	15.6537	2.8737	2.82389	0.810485	0.372264	0.00125337	0.000974011	0.000377337	0.00226168
