1.26352e-09	5.8356e-10	-8.70363e-10	7.83835e-10	3.543e-11	3.36988e-11	-4.84989e-12	1.47412e-11	1.12683e-13	8.50166e-14	-1.63576e-13	2.20254e-13	
1.28402e-09	5.93027e-10	-8.84482e-10	7.9655e-10	3.60048e-11	3.42455e-11	-4.92856e-12	1.49804e-11	1.14511e-13	8.63957e-14	-1.6623e-13	2.23827e-13	
1.3045e-09	6.02487e-10	-8.98592e-10	8.09257e-10	3.65791e-11	3.47918e-11	-5.00719e-12	1.52193e-11	1.16338e-13	8.7774e-14	-1.68882e-13	2.27398e-13	
1.32496e-09	6.11938e-10	-9.12688e-10	8.21952e-10	3.7153e-11	3.53376e-11	-5.08574e-12	1.54581e-11	1.18163e-13	8.91509e-14	-1.71531e-13	2.30965e-13	
1.3454e-09	6.21376e-10	-9.26765e-10	8.34629e-10	3.7726e-11	3.58826e-11	-5.16418e-12	1.56965e-11	1.19985e-13	9.05258e-14	-1.74176e-13	2.34527e-13	
1.3658e-09	6.30797e-10	-9.40816e-10	8.47283e-10	3.8298e-11	3.64266e-11	-5.24247e-12	1.59345e-11	1.21804e-13	9.18983e-14	-1.76817e-13	2.38083e-13	
1.38615e-09	6.40198e-10	-9.54836e-10	8.59909e-10	3.88687e-11	3.69695e-11	-5.3206e-12	1.61719e-11	1.23619e-13	9.32678e-14	-1.79452e-13	2.41631e-13	
1.40645e-09	6.49573e-10	-9.6882e-10	8.72503e-10	3.94379e-11	3.75109e-11	-5.39852e-12	1.64088e-11	1.2543e-13	9.46338e-14	-1.8208e-13	2.45169e-13	
1.42669e-09	6.58921e-10	-9.82761e-10	8.85059e-10	4.00055e-11	3.80507e-11	-5.47621e-12	1.66449e-11	1.27235e-13	9.59956e-14	-1.847e-13	2.48698e-13	
1.44686e-09	6.68237e-10	-9.96656e-10	8.97572e-10	4.05711e-11	3.85887e-11	-5.55363e-12	1.68802e-11	1.29034e-13	9.73528e-14	-1.87312e-13	2.52214e-13	
1.46696e-09	6.77518e-10	-1.0105e-09	9.10038e-10	4.11345e-11	3.91246e-11	-5.63076e-12	1.71147e-11	1.30826e-13	9.87049e-14	-1.89913e-13	2.55717e-13	
1.48697e-09	6.8676e-10	-1.02428e-09	9.22451e-10	4.16956e-11	3.96583e-11	-5.70757e-12	1.73481e-11	1.3261e-13	1.00051e-13	-1.92504e-13	2.59205e-13	
1.50689e-09	6.95959e-10	-1.038e-09	9.34808e-10	4.22542e-11	4.01895e-11	-5.78402e-12	1.75805e-11	1.34387e-13	1.01392e-13	-1.95082e-13	2.62677e-13	
1.5267e-09	7.05113e-10	-1.05165e-09	9.47103e-10	4.28099e-11	4.07181e-11	-5.8601e-12	1.78117e-11	1.36154e-13	1.02725e-13	-1.97648e-13	2.66132e-13	
1.54642e-09	7.14217e-10	-1.06523e-09	9.59331e-10	4.33627e-11	4.12439e-11	-5.93576e-12	1.80417e-11	1.37912e-13	1.04051e-13	-2.002e-13	2.69568e-13	
1.56602e-09	7.23268e-10	-1.07873e-09	9.71489e-10	4.39122e-11	4.17666e-11	-6.01099e-12	1.82704e-11	1.3966e-13	1.0537e-13	-2.02737e-13	2.72984e-13	
1.58549e-09	7.32264e-10	-1.09215e-09	9.83572e-10	4.44584e-11	4.2286e-11	-6.08575e-12	1.84976e-11	1.41397e-13	1.06681e-13	-2.05259e-13	2.7638e-13	
1.60484e-09	7.412e-10	-1.10548e-09	9.95576e-10	4.50009e-11	4.28021e-11	-6.16002e-12	1.87234e-11	1.43122e-13	1.07983e-13	-2.07764e-13	2.79752e-13	
1.62406e-09	7.50075e-10	-1.11871e-09	1.0075e-09	4.55397e-11	4.33146e-11	-6.23377e-12	1.89475e-11	1.44836e-13	1.09275e-13	-2.10251e-13	2.83102e-13	
1.64313e-09	7.58883e-10	-1.13185e-09	1.01933e-09	4.60745e-11	4.38232e-11	-6.30698e-12	1.917e-11	1.46537e-13	1.10559e-13	-2.12721e-13	2.86426e-13	
1.66205e-09	7.67623e-10	-1.14489e-09	1.03107e-09	4.66052e-11	4.4328e-11	-6.37962e-12	1.93908e-11	1.48225e-13	1.11832e-13	-2.1517e-13	2.89725e-13	
1.68082e-09	7.76292e-10	-1.15782e-09	1.04271e-09	4.71315e-11	4.48286e-11	-6.45166e-12	1.96098e-11	1.49899e-13	1.13095e-13	-2.176e-13	2.92997e-13	
1.69943e-09	7.84887e-10	-1.17064e-09	1.05426e-09	4.76533e-11	4.53249e-11	-6.52309e-12	1.98269e-11	1.51558e-13	1.14347e-13	-2.2001e-13	2.96241e-13	
1.71787e-09	7.93405e-10	-1.18334e-09	1.0657e-09	4.81704e-11	4.58167e-11	-6.59388e-12	2.00421e-11	1.53203e-13	1.15588e-13	-2.22397e-13	2.99456e-13	
1.73614e-09	8.01843e-10	-1.19592e-09	1.07703e-09	4.86827e-11	4.6304e-11	-6.66401e-12	2.02552e-11	1.54832e-13	1.16817e-13	-2.24762e-13	3.02641e-13	
1.75424e-09	8.10198e-10	-1.20839e-09	1.08825e-09	4.919e-11	4.67865e-11	-6.73345e-12	2.04663e-11	1.56446e-13	1.18035e-13	-2.27104e-13	3.05794e-13	
1.77214e-09	8.18469e-10	-1.22072e-09	1.09936e-09	4.96922e-11	4.72641e-11	-6.80219e-12	2.06752e-11	1.58043e-13	1.1924e-13	-2.29423e-13	3.08916e-13	
1.78986e-09	8.26653e-10	-1.23293e-09	1.11035e-09	5.01891e-11	4.77367e-11	-6.8702e-12	2.08819e-11	1.59623e-13	1.20432e-13	-2.31717e-13	3.12005e-13	
1.80739e-09	8.34747e-10	-1.245e-09	1.12123e-09	5.06805e-11	4.82041e-11	-6.93747e-12	2.10864e-11	1.61186e-13	1.21611e-13	-2.33986e-13	3.1506e-13	
1.82471e-09	8.42749e-10	-1.25694e-09	1.13197e-09	5.11663e-11	4.86662e-11	-7.00398e-12	2.12886e-11	1.62731e-13	1.22777e-13	-2.36229e-13	3.1808e-13	
1.84184e-09	8.50658e-10	-1.26873e-09	1.1426e-09	5.16465e-11	4.91229e-11	-7.0697e-12	2.14883e-11	1.64258e-13	1.23929e-13	-2.38446e-13	3.21065e-13	
1.85875e-09	8.5847e-10	-1.28038e-09	1.15309e-09	5.21208e-11	4.95741e-11	-7.13463e-12	2.16857e-11	1.65767e-13	1.25067e-13	-2.40635e-13	3.24014e-13	
1.87546e-09	8.66185e-10	-1.29189e-09	1.16345e-09	5.25892e-11	5.00196e-11	-7.19875e-12	2.18806e-11	1.67256e-13	1.26191e-13	-2.42798e-13	3.26925e-13	
1.89195e-09	8.738e-10	-1.30325e-09	1.17368e-09	5.30516e-11	5.04593e-11	-7.26204e-12	2.20729e-11	1.68727e-13	1.273e-13	-2.44933e-13	3.298e-13	
1.90821e-09	8.81314e-10	-1.31445e-09	1.18377e-09	5.35077e-11	5.08932e-11	-7.32448e-12	2.22627e-11	1.70178e-13	1.28395e-13	-2.47039e-13	3.32636e-13	
1.92426e-09	8.88725e-10	-1.32551e-09	1.19373e-09	5.39577e-11	5.13212e-11	-7.38607e-12	2.24499e-11	1.71609e-13	1.29475e-13	-2.49116e-13	3.35433e-13	
1.94008e-09	8.96031e-10	-1.3364e-09	1.20354e-09	5.44013e-11	5.17431e-11	-7.44679e-12	2.26345e-11	1.7302e-13	1.30539e-13	-2.51164e-13	3.3819e-13	
1.95567e-09	9.03231e-10	-1.34714e-09	1.21321e-09	5.48384e-11	5.21589e-11	-7.50663e-12	2.28164e-11	1.7441e-13	1.31588e-13	-2.53182e-13	3.40908e-13	
1.97103e-09	9.10325e-10	-1.35772e-09	1.22274e-09	5.52691e-11	5.25685e-11	-7.56559e-12	2.29956e-11	1.7578e-13	1.32622e-13	-2.55171e-13	3.43585e-13	
1.98615e-09	9.1731e-10	-1.36814e-09	1.23212e-09	5.56932e-11	5.29719e-11	-7.62363e-12	2.3172e-11	1.77128e-13	1.33639e-13	-2.57129e-13	3.46221e-13	
2.00104e-09	9.24185e-10	-1.37839e-09	1.24136e-09	5.61106e-11	5.33689e-11	-7.68077e-12	2.33457e-11	1.78456e-13	1.34641e-13	-2.59056e-13	3.48816e-13	
2.01568e-09	9.3095e-10	-1.38848e-09	1.25044e-09	5.65213e-11	5.37596e-11	-7.737e-12	2.35166e-11	1.79762e-13	1.35626e-13	-2.60952e-13	3.5137e-13	
2.03009e-09	9.37603e-10	-1.39841e-09	1.25938e-09	5.69253e-11	5.41438e-11	-7.79229e-12	2.36847e-11	1.81047e-13	1.36596e-13	-2.62817e-13	3.53881e-13	
2.04425e-09	9.44144e-10	-1.40816e-09	1.26817e-09	5.73224e-11	5.45215e-11	-7.84666e-12	2.38499e-11	1.8231e-13	1.37549e-13	-2.64651e-13	3.5635e-13	
2.05817e-09	9.50573e-10	-1.41775e-09	1.2768e-09	5.77127e-11	5.48927e-11	-7.90008e-12	2.40123e-11	1.83551e-13	1.38485e-13	-2.66453e-13	3.58776e-13	
2.07185e-09	9.56888e-10	-1.42717e-09	1.28529e-09	5.80961e-11	5.52574e-11	-7.95257e-12	2.41718e-11	1.84771e-13	1.39405e-13	-2.68223e-13	3.6116e-13	
2.08527e-09	9.63089e-10	-1.43642e-09	1.29361e-09	5.84726e-11	5.56155e-11	-8.0041e-12	2.43285e-11	1.85968e-13	1.40309e-13	-2.69961e-13	3.635e-13	
2.09845e-09	9.69176e-10	-1.4455e-09	1.30179e-09	5.88422e-11	5.5967e-11	-8.05469e-12	2.44822e-11	1.87144e-13	1.41195e-13	-2.71667e-13	3.65798e-13	
2.11138e-09	9.75148e-10	-1.45441e-09	1.30981e-09	5.92048e-11	5.63119e-11	-8.10433e-12	2.46331e-11	1.88297e-13	1.42065e-13	-2.73341e-13	3.68052e-13	
2.12407e-09	9.81006e-10	-1.46314e-09	1.31768e-09	5.95604e-11	5.66502e-11	-8.15301e-12	2.4781e-11	1.89428e-13	1.42919e-13	-2.74983e-13	3.70263e-13	
2.1365e-09	9.86749e-10	-1.47171e-09	1.32539e-09	5.99091e-11	5.69818e-11	-8.20073e-12	2.49261e-11	1.90537e-13	1.43755e-13	-2.76593e-13	3.7243e-13	
2.14869e-09	9.92377e-10	-1.4801e-09	1.33295e-09	6.02508e-11	5.73068e-11	-8.24751e-12	2.50683e-11	1.91623e-13	1.44575e-13	-2.7817e-13	3.74554e-13	
2.16062e-09	9.9789e-10	-1.48832e-09	1.34036e-09	6.05855e-11	5.76252e-11	-8.29333e-12	2.52075e-11	1.92688e-13	1.45379e-13	-2.79716e-13	3.76635e-13	
2.17231e-09	1.00329e-09	-1.49638e-09	1.34761e-09	6.09133e-11	5.79369e-11	-8.33819e-12	2.53439e-11	1.9373e-13	1.46165e-13	-2.81229e-13	3.78673e-13	
2.18375e-09	1.00857e-09	-1.50426e-09	1.35471e-09	6.12341e-11	5.82421e-11	-8.38211e-12	2.54774e-11	1.94751e-13	1.46935e-13	-2.8271e-13	3.80667e-13	
2.19495e-09	1.01374e-09	-1.51197e-09	1.36165e-09	6.1548e-11	5.85406e-11	-8.42508e-12	2.5608e-11	1.95749e-13	1.47688e-13	-2.8416e-13	3.82618e-13	
2.2059e-09	1.0188e-09	-1.51951e-09	1.36844e-09	6.1855e-11	5.88326e-11	-8.46711e-12	2.57357e-11	1.96726e-13	1.48425e-13	-2.85577e-13	3.84527e-13	
2.2166e-09	1.02374e-09	-1.52688e-09	1.37509e-09	6.21552e-11	5.91181e-11	-8.50819e-12	2.58606e-11	1.9768e-13	1.49145e-13	-2.86963e-13	3.86393e-13	
2.22706e-09	1.02858e-09	-1.53409e-09	1.38158e-09	6.24485e-11	5.93971e-11	-8.54835e-12	2.59827e-11	1.98613e-13	1.49849e-13	-2.88317e-13	3.88217e-13	
2.23728e-09	1.03329e-09	-1.54113e-09	1.38791e-09	6.27351e-11	5.96697e-11	-8.58757e-12	2.61019e-11	1.99525e-13	1.50537e-13	-2.8964e-13	3.89998e-13	
2.24726e-09	1.0379e-09	-1.548e-09	1.3941e-09	6.30149e-11	5.99358e-11	-8.62587e-12	2.62183e-11	2.00414e-13	1.51208e-13	-2.90932e-13	3.91737e-13	
2.257e-09	1.0424e-09	-1.55471e-09	1.40015e-09	6.3288e-11	6.01956e-11	-8.66326e-12	2.6332e-11	2.01283e-13	1.51863e-13	-2.92193e-13	3.93435e-13	
2.2665e-09	1.04679e-09	-1.56126e-09	1.40604e-09	6.35545e-11	6.0449e-11	-8.69974e-12	2.64428e-11	2.02131e-13	1.52503e-13	-2.93423e-13	3.95092e-13	
2.27577e-09	1.05107e-09	-1.56764e-09	1.41179e-09	6.38144e-11	6.06962e-11	-8.73531e-12	2.6551e-11	2.02957e-13	1.53126e-13	-2.94623e-13	3.96708e-13	
2.28481e-09	1.05525e-09	-1.57387e-09	1.4174e-09	6.40678e-11	6.09372e-11	-8.77e-12	2.66564e-11	2.03763e-13	1.53734e-13	-2.95793e-13	3.98283e-13	
2.29362e-09	1.05931e-09	-1.57993e-09	1.42286e-09	6.43147e-11	6.11721e-11	-8.8038e-12	2.67591e-11	2.04548e-13	1.54327e-13	-2.96933e-13	3.99818e-13	
2.30219e-09	1.06327e-09	-1.58584e-09	1.42818e-09	6.45552e-11	6.14009e-11	-8.83673e-12	2.68592e-11	2.05313e-13	1.54904e-13	-2.98044e-13	4.01313e-13	
2.31055e-09	1.06713e-09	-1.5916e-09	1.43336e-09	6.47895e-11	6.16237e-11	-8.86879e-12	2.69567e-11	2.06058e-13	1.55466e-13	-2.99125e-13	4.02769e-13	
2.31868e-09	1.07089e-09	-1.5972e-09	1.43841e-09	6.50175e-11	6.18405e-11	-8.9e-12	2.70515e-11	2.06784e-13	1.56013e-13	-3.00178e-13	4.04187e-13	
2.32659e-09	1.07454e-09	-1.60265e-09	1.44332e-09	6.52393e-11	6.20515e-11	-8.93037e-12	2.71438e-11	2.07489e-13	1.56546e-13	-3.01202e-13	4.05566e-13	
2.33428e-09	1.07809e-09	-1.60795e-09	1.44809e-09	6.5455e-11	6.22567e-11	-8.9599e-12	2.72336e-11	2.08175e-13	1.57063e-13	-3.02198e-13	4.06907e-13	
2.34176e-09	1.08155e-09	-1.6131e-09	1.45273e-09	6.56648e-11	6.24562e-11	-8.98861e-12	2.73209e-11	2.08842e-13	1.57567e-13	-3.03166e-13	4.08211e-13	
2.34903e-09	1.08491e-09	-1.61811e-09	1.45724e-09	6.58686e-11	6.26501e-11	-9.01651e-12	2.74057e-11	2.09491e-13	1.58056e-13	-3.04107e-13	4.09478e-13	
2.35609e-09	1.08817e-09	-1.62297e-09	1.46162e-09	6.60666e-11	6.28384e-11	-9.04362e-12	2.74881e-11	2.1012e-13	1.58531e-13	-3.05022e-13	4.10709e-13	
2.36295e-09	1.09133e-09	-1.62769e-09	1.46587e-09	6.62589e-11	6.30213e-11	-9.06994e-12	2.75681e-11	2.10732e-13	1.58992e-13	-3.05909e-13	4.11904e-13	
2.36961e-09	1.09441e-09	-1.63228e-09	1.47e-09	6.64455e-11	6.31988e-11	-9.09548e-12	2.76457e-11	2.11325e-13	1.5944e-13	-3.06771e-13	4.13064e-13	
2.37606e-09	1.09739e-09	-1.63673e-09	1.47401e-09	6.66266e-11	6.3371e-11	-9.12027e-12	2.7721e-11	2.11901e-13	1.59875e-13	-3.07607e-13	4.1419e-13	
2.38233e-09	1.10028e-09	-1.64104e-09	1.47789e-09	6.68022e-11	6.35381e-11	-9.14431e-12	2.77941e-11	2.1246e-13	1.60296e-13	-3.08418e-13	4.15282e-13	
2.3884e-09	1.10309e-09	-1.64522e-09	1.48166e-09	6.69725e-11	6.37e-11	-9.16761e-12	2.78649e-11	2.13001e-13	1.60704e-13	-3.09204e-13	4.1634e-13	
2.39428e-09	1.10581e-09	-1.64928e-09	1.48531e-09	6.71375e-11	6.38569e-11	-9.1902e-12	2.79336e-11	2.13526e-13	1.611e-13	-3.09965e-13	4.17366e-13	
2.39998e-09	1.10844e-09	-1.6532e-09	1.48885e-09	6.72973e-11	6.4009e-11	-9.21208e-12	2.80001e-11	2.14034e-13	1.61484e-13	-3.10703e-13	4.18359e-13	
2.4055e-09	1.11099e-09	-1.65701e-09	1.49227e-09	6.74521e-11	6.41562e-11	-9.23326e-12	2.80645e-11	2.14527e-13	1.61855e-13	-3.11418e-13	4.19322e-13	
2.41084e-09	1.11345e-09	-1.66069e-09	1.49558e-09	6.76019e-11	6.42986e-11	-9.25377e-12	2.81268e-11	2.15003e-13	1.62215e-13	-3.12109e-13	4.20253e-13	
2.41601e-09	1.11584e-09	-1.66425e-09	1.49879e-09	6.77468e-11	6.44365e-11	-9.27361e-12	2.81871e-11	2.15464e-13	1.62562e-13	-3.12779e-13	4.21154e-13	
2.42101e-09	1.11815e-09	-1.66769e-09	1.50189e-09	6.7887e-11	6.45698e-11	-9.2928e-12	2.82454e-11	2.1591e-13	1.62899e-13	-3.13426e-13	4.22025e-13	
2.42584e-09	1.12038e-09	-1.67102e-09	1.50489e-09	6.80225e-11	6.46987e-11	-9.31135e-12	2.83018e-11	2.16341e-13	1.63224e-13	-3.14051e-13	4.22868e-13	
2.43051e-09	1.12254e-09	-1.67424e-09	1.50779e-09	6.81535e-11	6.48233e-11	-9.32927e-12	2.83563e-11	2.16757e-13	1.63538e-13	-3.14656e-13	4.23682e-13	
2.43503e-09	1.12462e-09	-1.67734e-09	1.51059e-09	6.828e-11	6.49436e-11	-9.34659e-12	2.84089e-11	2.1716e-13	1.63842e-13	-3.1524e-13	4.24468e-13	
2.43938e-09	1.12664e-09	-1.68034e-09	1.51329e-09	6.84021e-11	6.50598e-11	-9.36331e-12	2.84598e-11	2.17548e-13	1.64135e-13	-3.15804e-13	4.25228e-13	
2.44359e-09	1.12858e-09	-1.68324e-09	1.5159e-09	6.852e-11	6.51719e-11	-9.37945e-12	2.85088e-11	2.17923e-13	1.64418e-13	-3.16349e-13	4.25961e-13	
2.44764e-09	1.13045e-09	-1.68604e-09	1.51841e-09	6.86338e-11	6.52801e-11	-9.39503e-12	2.85562e-11	2.18285e-13	1.64691e-13	-3.16874e-13	4.26668e-13	
2.45156e-09	1.13226e-09	-1.68873e-09	1.52084e-09	6.87435e-11	6.53845e-11	-9.41004e-12	2.86018e-11	2.18634e-13	1.64954e-13	-3.1738e-13	4.2735e-13	
2.45533e-09	1.134e-09	-1.69133e-09	1.52318e-09	6.88493e-11	6.54851e-11	-9.42452e-12	2.86458e-11	2.1897e-13	1.65208e-13	-3.17869e-13	4.28007e-13	
2.45896e-09	1.13568e-09	-1.69383e-09	1.52544e-09	6.89512e-11	6.55821e-11	-9.43848e-12	2.86882e-11	2.19295e-13	1.65453e-13	-3.18339e-13	4.28641e-13	
2.46247e-09	1.1373e-09	-1.69624e-09	1.52761e-09	6.90494e-11	6.56754e-11	-9.45192e-12	2.87291e-11	2.19607e-13	1.65688e-13	-3.18793e-13	4.29252e-13	
2.46584e-09	1.13885e-09	-1.69857e-09	1.5297e-09	6.9144e-11	6.57654e-11	-9.46486e-12	2.87684e-11	2.19908e-13	1.65915e-13	-3.19229e-13	4.29839e-13	
2.46908e-09	1.14035e-09	-1.7008e-09	1.53171e-09	6.9235e-11	6.58519e-11	-9.47732e-12	2.88063e-11	2.20197e-13	1.66133e-13	-3.19649e-13	4.30405e-13	
2.47221e-09	1.14179e-09	-1.70295e-09	1.53365e-09	6.93225e-11	6.59352e-11	-9.4893e-12	2.88427e-11	2.20475e-13	1.66344e-13	-3.20054e-13	4.30949e-13	
2.47521e-09	1.14318e-09	-1.70502e-09	1.53551e-09	6.94067e-11	6.60153e-11	-9.50083e-12	2.88778e-11	2.20743e-13	1.66546e-13	-3.20442e-13	4.31473e-13	
2.4781e-09	1.14452e-09	-1.70701e-09	1.53731e-09	6.94877e-11	6.60923e-11	-9.51191e-12	2.89114e-11	2.21001e-13	1.6674e-13	-3.20816e-13	4.31976e-13	
2.48087e-09	1.1458e-09	-1.70892e-09	1.53903e-09	6.95655e-11	6.61663e-11	-9.52256e-12	2.89438e-11	2.21248e-13	1.66927e-13	-3.21175e-13	4.3246e-13	
2.48354e-09	1.14703e-09	-1.71076e-09	1.54068e-09	6.96402e-11	6.62374e-11	-9.53279e-12	2.89749e-11	2.21486e-13	1.67106e-13	-3.2152e-13	4.32924e-13	
2.48609e-09	1.14821e-09	-1.71252e-09	1.54227e-09	6.9712e-11	6.63056e-11	-9.54261e-12	2.90048e-11	2.21714e-13	1.67278e-13	-3.21852e-13	4.3337e-13	
2.48855e-09	1.14934e-09	-1.71421e-09	1.54379e-09	6.97808e-11	6.63711e-11	-9.55204e-12	2.90334e-11	2.21933e-13	1.67443e-13	-3.2217e-13	4.33799e-13	
2.49091e-09	1.15043e-09	-1.71584e-09	1.54525e-09	6.98469e-11	6.6434e-11	-9.56109e-12	2.90609e-11	2.22143e-13	1.67602e-13	-3.22475e-13	4.34209e-13	
2.49317e-09	1.15148e-09	-1.71739e-09	1.54666e-09	6.99103e-11	6.64943e-11	-9.56976e-12	2.90873e-11	2.22345e-13	1.67754e-13	-3.22767e-13	4.34603e-13	
2.49533e-09	1.15248e-09	-1.71889e-09	1.548e-09	6.99711e-11	6.65521e-11	-9.57808e-12	2.91126e-11	2.22538e-13	1.679e-13	-3.23048e-13	4.34981e-13	
2.49741e-09	1.15344e-09	-1.72032e-09	1.54929e-09	7.00293e-11	6.66075e-11	-9.58605e-12	2.91368e-11	2.22723e-13	1.68039e-13	-3.23317e-13	4.35343e-13	
2.4994e-09	1.15435e-09	-1.72169e-09	1.55052e-09	7.00851e-11	6.66605e-11	-9.59369e-12	2.916e-11	2.22901e-13	1.68173e-13	-3.23574e-13	4.3569e-13	
2.5013e-09	1.15523e-09	-1.723e-09	1.5517e-09	7.01385e-11	6.67113e-11	-9.601e-12	2.91822e-11	2.23071e-13	1.68301e-13	-3.23821e-13	4.36022e-13	
2.50313e-09	1.15608e-09	-1.72425e-09	1.55283e-09	7.01896e-11	6.67599e-11	-9.60799e-12	2.92035e-11	2.23233e-13	1.68424e-13	-3.24057e-13	4.3634e-13	
2.50487e-09	1.15688e-09	-1.72546e-09	1.55392e-09	7.02385e-11	6.68064e-11	-9.61469e-12	2.92238e-11	2.23389e-13	1.68541e-13	-3.24282e-13	4.36644e-13	
2.50654e-09	1.15765e-09	-1.7266e-09	1.55495e-09	7.02853e-11	6.68509e-11	-9.62109e-12	2.92433e-11	2.23537e-13	1.68654e-13	-3.24498e-13	4.36934e-13	
2.50654e-09	1.15765e-09	-1.7266e-09	1.55495e-09	7.02853e-11	6.68509e-11	-9.62109e-12	2.92433e-11	2.23537e-13	1.68654e-13	-3.24498e-13	4.36934e-13	
2.50654e-09	1.15765e-09	-1.7266e-09	1.55495e-09	7.02853e-11	6.68509e-11	-9.62109e-12	2.92433e-11	2.23537e-13	1.68654e-13	-3.24498e-13	4.36934e-13	
2.50654e-09	1.15765e-09	-1.7266e-09	1.55495e-09	7.02853e-11	6.68509e-11	-9.62109e-12	2.92433e-11	2.23537e-13	1.68654e-13	-3.24498e-13	4.36934e-13	
2.50654e-09	1.15765e-09	-1.7266e-09	1.55495e-09	7.02853e-11	6.68509e-11	-9.62109e-12	2.92433e-11	2.23537e-13	1.68654e-13	-3.24498e-13	4.36934e-13	
2.50654e-09	1.15765e-09	-1.7266e-09	1.55495e-09	7.02853e-11	6.68509e-11	-9.62109e-12	2.92433e-11	2.23537e-13	1.68654e-13	-3.24498e-13	4.36934e-13	
2.50654e-09	1.15765e-09	-1.7266e-09	1.55495e-09	7.02853e-11	6.68509e-11	-9.62109e-12	2.92433e-11	2.23537e-13	1.68654e-13	-3.24498e-13	4.36934e-13	
2.50654e-09	1.15765e-09	-1.7266e-09	1.55495e-09	7.02853e-11	6.68509e-11	-9.62109e-12	2.92433e-11	2.23537e-13	1.68654e-13	-3.24498e-13	4.36934e-13	
2.50654e-09	1.15765e-09	-1.7266e-09	1.55495e-09	7.02853e-11	6.68509e-11	-9.62109e-12	2.92433e-11	2.23537e-13	1.68654e-13	-3.24498e-13	4.36934e-13	
2.50654e-09	1.15765e-09	-1.7266e-09	1.55495e-09	7.02853e-11	6.68509e-11	-9.62109e-12	2.92433e-11	2.23537e-13	1.68654e-13	-3.24498e-13	4.36934e-13	
2.50654e-09	1.15765e-09	-1.7266e-09	1.55495e-09	7.02853e-11	6.68509e-11	-9.62109e-12	2.92433e-11	2.23537e-13	1.68654e-13	-3.24498e-13	4.36934e-13	
2.50654e-09	1.15765e-09	-1.7266e-09	1.55495e-09	7.02853e-11	6.68509e-11	-9.62109e-12	2.92433e-11	2.23537e-13	1.68654e-13	-3.24498e-13	4.36934e-13	
2.50654e-09	1.15765e-09	-1.7266e-09	1.55495e-09	7.02853e-11	6.68509e-11	-9.62109e-12	2.92433e-11	2.23537e-13	1.68654e-13	-3.24498e-13	4.36934e-13	
2.50654e-09	1.15765e-09	-1.7266e-09	1.55495e-09	7.02853e-11	6.68509e-11	-9.62109e-12	2.92433e-11	2.23537e-13	1.68654e-13	-3.24498e-13	4.36934e-13	
2.50654e-09	1.15765e-09	-1.7266e-09	1.55495e-09	7.02853e-11	6.68509e-11	-9.62109e-12	2.92433e-11	2.23537e-13	1.68654e-13	-3.24498e-13	4.36934e-13	
2.50654e-09	1.15765e-09	-1.7266e-09	1.55495e-09	7.02853e-11	6.68509e-11	-9.62109e-12	2.92433e-11	2.23537e-13	1.68654e-13	-3.24498e-13	4.36934e-13	
2.50654e-09	1.15765e-09	-1.7266e-09	1.55495e-09	7.02853e-11	6.68509e-11	-9.62109e-12	2.92433e-11	2.23537e-13	1.68654e-13	-3.24498e-13	4.36934e-13	
2.50654e-09	1.15765e-09	-1.7266e-09	1.55495e-09	7.02853e-11	6.68509e-11	-9.62109e-12	2.92433e-11	2.23537e-13	1.68654e-13	-3.24498e-13	4.36934e-13	
2.50654e-09	1.15765e-09	-1.7266e-09	1.55495e-09	7.02853e-11	6.68509e-11	-9.62109e-12	2.92433e-11	2.23537e-13	1.68654e-13	-3.24498e-13	4.36934e-13	
2.50654e-09	1.15765e-09	-1.7266e-09	1.55495e-09	7.02853e-11	6.68509e-11	-9.62109e-12	2.92433e-11	2.23537e-13	1.68654e-13	-3.24498e-13	4.36934e-13	
2.50654e-09	1.15765e-09	-1.7266e-09	1.55495e-09	7.02853e-11	6.68509e-11	-9.62109e-12	2.92433e-11	2.23537e-13	1.68654e-13	-3.24498e-13	4.36934e-13	
2.50654e-09	1.15765e-09	-1.7266e-09	1.55495e-09	7.02853e-11	6.68509e-11	-9.62109e-12	2.92433e-11	2.23537e-13	1.68654e-13	-3.24498e-13	4.36934e-13	
2.50654e-09	1.15765e-09	-1.7266e-09	1.55495e-09	7.02853e-11	6.68509e-11	-9.62109e-12	2.92433e-11	2.23537e-13	1.68654e-13	-3.24498e-13	4.36934e-13	
2.50654e-09	1.15765e-09	-1.7266e-09	1.55495e-09	7.02853e-11	6.68509e-11	-9.62109e-12	2.92433e-11	2.23537e-13	1.68654e-13	-3.24498e-13	4.36934e-13	
2.50654e-09	1.15765e-09	-1.7266e-09	1.55495e-09	7.02853e-11	6.68509e-11	-9.62109e-12	2.92433e-11	2.23537e-13	1.68654e-13	-3.24498e-13	4.36934e-13	
2.50654e-09	1.15765e-09	-1.7266e-09	1.55495e-09	7.02853e-11	6.68509e-11	-9.62109e-12	2.92433e-11	2.23537e-13	1.68654e-13	-3.24498e-13	4.36934e-13	
2.50654e-09	1.15765e-09	-1.7266e-09	1.55495e-09	7.02853e-11	6.68509e-11	-9.62109e-12	2.92433e-11	2.23537e-13	1.68654e-13	-3.24498e-13	4.36934e-13	
2.50654e-09	1.15765e-09	-1.7266e-09	1.55495e-09	7.02853e-11	6.68509e-11	-9.62109e-12	2.92433e-11	2.23537e-13	1.68654e-13	-3.24498e-13	4.36934e-13	
2.50654e-09	1.15765e-09	-1.7266e-09	1.55495e-09	7.02853e-11	6.68509e-11	-9.62109e-12	2.92433e-11	2.23537e-13	1.68654e-13	-3.24498e-13	4.36934e-13	
2.50654e-09	1.15765e-09	-1.7266e-09	1.55495e-09	7.02853e-11	6.68509e-11	-9.62109e-12	2.92433e-11	2.23537e-13	1.68654e-13	-3.24498e-13	4.36934e-13	
2.50654e-09	1.15765e-09	-1.7266e-09	1.55495e-09	7.02853e-11	6.68509e-11	-9.62109e-12	2.92433e-11	2.23537e-13	1.68654e-13	-3.24498e-13	4.36934e-13	
2.50654e-09	1.15765e-09	-1.7266e-09	1.55495e-09	7.02853e-11	6.68509e-11	-9.62109e-12	2.92433e-11	2.23537e-13	1.68654e-13	-3.24498e-13	4.36934e-13	
2.50654e-09	1.15765e-09	-1.7266e-09	1.55495e-09	7.02853e-11	6.68509e-11	-9.62109e-12	2.92433e-11	2.23537e-13	1.68654e-13	-3.24498e-13	4.36934e-13	
2.50654e-09	1.15765e-09	-1.7266e-09	1.55495e-09	7.02853e-11	6.68509e-11	-9.62109e-12	2.92433e-11	2.23537e-13	1.68654e-13	-3.24498e-13	4.36934e-13	
2.50654e-09	1.15765e-09	-1.7266e-09	1.55495e-09	7.02853e-11	6.68509e-11	-9.62109e-12	2.92433e-11	2.23537e-13	1.68654e-13	-3.24498e-13	4.36934e-13	
2.50654e-09	1.15765e-09	-1.7266e-09	1.55495e-09	7.02853e-11	6.68509e-11	-9.62109e-12	2.92433e-11	2.23537e-13	1.68654e-13	-3.24498e-13	4.36934e-13	
2.50654e-09	1.15765e-09	-1.7266e-09	1.55495e-09	7.02853e-11	6.68509e-11	-9.62109e-12	2.92433e-11	2.23537e-13	1.68654e-13	-3.24498e-13	4.36934e-13	
2.50654e-09	1.15765e-09	-1.7266e-09	1.55495e-09	7.02853e-11	6.68509e-11	-9.62109e-12	2.92433e-11	2.23537e-13	1.68654e-13	-3.24498e-13	4.36934e-13	
2.50654e-09	1.15765e-09	-1.7266e-09	1.55495e-09	7.02853e-11	6.68509e-11	-9.62109e-12	2.92433e-11	2.23537e-13	1.68654e-13	-3.24498e-13	4.36934e-13	
2.50654e-09	1.15765e-09	-1.7266e-09	1.55495e-09	7.02853e-11	6.68509e-11	-9.62109e-12	2.92433e-11	2.23537e-13	1.68654e-13	-3.24498e-13	4.36934e-13	
2.50654e-09	1.15765e-09	-1.7266e-09	1.55495e-09	7.02853e-11	6.68509e-11	-9.62109e-12	2.92433e-11	2.23537e-13	1.68654e-13	-3.24498e-13	4.36934e-13	
2.50654e-09	1.15765e-09	-1.7266e-09	1.55495e-09	7.02853e-11	6.68509e-11	-9.62109e-12	2.92433e-11	2.23537e-13	1.68654e-13	-3.24498e-13	4.36934e-13	
2.50654e-09	1.15765e-09	-1.7266e-09	1.55495e-09	7.02853e-11	6.68509e-11	-9.62109e-12	2.92433e-11	2.23537e-13	1.68654e-13	-3.24498e-13	4.36934e-13	
2.50654e-09	1.15765e-09	-1.7266e-09	1.55495e-09	7.02853e-11	6.68509e-11	-9.62109e-12	2.92433e-11	2.23537e-13	1.68654e-13	-3.24498e-13	4.36934e-13	
2.50654e-09	1.15765e-09	-1.7266e-09	1.55495e-09	7.02853e-11	6.68509e-11	-9.62109e-12	2.92433e-11	2.23537e-13	1.68654e-13	-3.24498e-13	4.36934e-13	
2.50654e-09	1.15765e-09	-1.7266e-09	1.55495e-09	7.02853e-11	6.68509e-11	-9.62109e-12	2.92433e-11	2.23537e-13	1.68654e-13	-3.24498e-13	4.36934e-13	
2.50654e-09	1.15765e-09	-1.7266e-09	1.55495e-09	7.02853e-11	6.68509e-11	-9.62109e-12	2.92433e-11	2.23537e-13	1.68654e-13	-3.24498e-13	4.36934e-13	
2.50654e-09	1.15765e-09	-1.7266e-09	1.55495e-09	7.02853e-11	6.68509e-11	-9.62109e-12	2.92433e-11	2.23537e-13	1.68654e-13	-3.24498e-13	4.36934e-13	
2.50654e-09	1.15765e-09	-1.7266e-09	1.55495e-09	7.02853e-11	6.68509e-11	-9.62109e-12	2.92433e-11	2.23537e-13	1.68654e-13	-3.24498e-13	4.36934e-13	
2.50654e-09	1.15765e-09	-1.7266e-09	1.55495e-09	7.02853e-11	6.68509e-11	-9.62109e-12	2.92433e-11	2.23537e-13	1.68654e-13	-3.24498e-13	4.36934e-13	
2.50654e-09	1.15765e-09	-1.7266e-09	1.55495e-09	7.02853e-11	6.68509e-11	-9.62109e-12	2.92433e-11	2.23537e-13	1.68654e-13	-3.24498e-13	4.36934e-13	
2.50654e-09	1.15765e-09	-1.7266e-09	1.55495e-09	7.02853e-11	6.68509e-11	-9.62109e-12	2.92433e-11	2.23537e-13	1.68654e-13	-3.24498e-13	4.36934e-13	
2.50654e-09	1.15765e-09	-1.7266e-09	1.55495e-09	7.02853e-11	6.68509e-11	-9.62109e-12	2.92433e-11	2.23537e-13	1.68654e-13	-3.24498e-13	4.36934e-13	
2.50654e-09	1.15765e-09	-1.7266e-09	1.55495e-09	7.02853e-11	6.68509e-11	-9.62109e-12	2.92433e-11	2.23537e-13	1.68654e-13	-3.24498e-13	4.36934e-13	
2.50654e-09	1.15765e-09	-1.7266e-09	1.55495e-09	7.02853e-11	6.68509e-11	-9.62109e-12	2.92433e-11	2.23537e-13	1.68654e-13	-3.24498e-13	4.36934e-13	
2.50654e-09	1.15765e-09	-1.7266e-09	1.55495e-09	7.02853e-11	6.68509e-11	-9.62109e-12	2.92433e-11	2.23537e-13	1.68654e-13	-3.24498e-13	4.36934e-13	
2.50654e-09	1.15765e-09	-1.7266e-09	1.55495e-09	7.02853e-11	6.68509e-11	-9.62109e-12	2.92433e-11	2.23537e-13	1.68654e-13	-3.24498e-13	4.36934e-13	
2.50654e-09	1.15765e-09	-1.7266e-09	1.55495e-09	7.02853e-11	6.68509e-11	-9.62109e-12	2.92433e-11	2.23537e-13	1.68654e-13	-3.24498e-13	4.36934e-13	
2.50654e-09	1.15765e-09	-1.7266e-09	1.55495e-09	7.02853e-11	6.68509e-11	-9.62109e-12	2.92433e-11	2.23537e-13	1.68654e-13	-3.24498e-13	4.36934e-13	
2.50654e-09	1.15765e-09	-1.7266e-09	1.55495e-09	7.02853e-11	6.68509e-11	-9.62109e-12	2.92433e-11	2.23537e-13	1.68654e-13	-3.24498e-13	4.36934e-13	
2.50654e-09	1.15765e-09	-1.7266e-09	1.55495e-09	7.02853e-11	6.68509e-11	-9.62109e-12	2.92433e-11	2.23537e-13	1.68654e-13	-3.24498e-13	4.36934e-13	
2.50654e-09	1.15765e-09	-1.7266e-09	1.55495e-09	7.02853e-11	6.68509e-11	-9.62109e-12	2.92433e-11	2.23537e-13	1.68654e-13	-3.24498e-13	4.36934e-13	
2.50654e-09	1.15765e-09	-1.7266e-09	1.55495e-09	7.02853e-11	6.68509e-11	-9.62109e-12	2.92433e-11	2.23537e-13	1.68654e-13	-3.24498e-13	4.36934e-13	
2.50654e-09	1.15765e-09	-1.7266e-09	1.55495e-09	7.02853e-11	6.68509e-11	-9.62109e-12	2.92433e-11	2.23537e-13	1.68654e-13	-3.24498e-13	4.36934e-13	
2.50654e-09	1.15765e-09	-1.7266e-09	1.55495e-09	7.02853e-11	6.68509e-11	-9.62109e-12	2.92433e-11	2.23537e-13	1.68654e-13	-3.24498e-13	4.36934e-13	
2.50654e-09	1.15765e-09	-1.7266e-09	1.55495e-09	7.02853e-11	6.68509e-11	-9.62109e-12	2.92433e-11	2.23537e-13	1.68654e-13	-3.24498e-13	4.36934e-13	
2.50654e-09	1.15765e-09	-1.7266e-09	1.55495e-09	7.02853e-11	6.68509e-11	-9.62109e-12	2.92433e-11	2.23537e-13	1.68654e-13	-3.24498e-13	4.36934e-13	
2.50654e-09	1.15765e-09	-1.7266e-09	1.55495e-09	7.02853e-11	6.68509e-11	-9.62109e-12	2.92433e-11	2.23537e-13	1.68654e-13	-3.24498e-13	4.36934e-13	
2.50654e-09	1.15765e-09	-1.7266e-09	1.55495e-09	7.02853e-11	6.68509e-11	-9.62109e-12	2.92433e-11	2.23537e-13	1.68654e-13	-3.24498e-13	4.36934e-13	
2.50654e-09	1.15765e-09	-1.7266e-09	1.55495e-09	7.02853e-11	6.68509e-11	-9.62109e-12	2.92433e-11	2.23537e-13	1.68654e-13	-3.24498e-13	4.36934e-13	
2.50654e-09	1.15765e-09	-1.7266e-09	1.55495e-09	7.02853e-11	6.68509e-11	-9.62109e-12	2.92433e-11	2.23537e-13	1.68654e-13	-3.24498e-13	4.36934e-13	
2.50654e-09	1.15765e-09	-1.7266e-09	1.55495e-09	7.02853e-11	6.68509e-11	-9.62109e-12	2.92433e-11	2.23537e-13	1.68654e-13	-3.24498e-13	4.36934e-13	
2.50654e-09	1.15765e-09	-1.7266e-09	1.55495e-09	7.02853e-11	6.68509e-11	-9.62109e-12	2.92433e-11	2.23537e-13	1.68654e-13	-3.24498e-13	4.36934e-13	
2.50654e-09	1.15765e-09	-1.7266e-09	1.55495e-09	7.02853e-11	6.68509e-11	-9.62109e-12	2.92433e-11	2.23537e-13	1.68654e-13	-3.24498e-13	4.36934e-13	
2.50654e-09	1.15765e-09	-1.7266e-09	1.55495e-09	7.02853e-11	6.68509e-11	-9.62109e-12	2.92433e-11	2.23537e-13	1.68654e-13	-3.24498e-13	4.36934e-13	
2.50654e-09	1.15765e-09	-1.7266e-09	1.55495e-09	7.02853e-11	6.68509e-11	-9.62109e-12	2.92433e-11	2.23537e-13	1.68654e-13	-3.24498e-13	4.36934e-13	
2.50654e-09	1.15765e-09	-1.7266e-09	1.55495e-09	7.02853e-11	6.68509e-11	-9.62109e-12	2.92433e-11	2.23537e-13	1.68654e-13	-3.24498e-13	4.36934e-13	
2.50654e-09	1.15765e-09	-1.7266e-09	1.55495e-09	7.02853e-11	6.68509e-11	-9.62109e-12	2.92433e-11	2.23537e-13	1.68654e-13	-3.24498e-13	4.36934e-13	
2.50654e-09	1.15765e-09	-1.7266e-09	1.55495e-09	7.02853e-11	6.68509e-11	-9.62109e-12	2.92433e-11	2.23537e-13	1.68654e-13	-3.24498e-13	4.36934e-13	
2.50654e-09	1.15765e-09	-1.7266e-09	1.55495e-09	7.02853e-11	6.68509e-11	-9.62109e-12	2.92433e-11	2.23537e-13	1.68654e-13	-3.24498e-13	4.36934e-13	
2.50654e-09	1.15765e-09	-1.7266e-09	1.55495e-09	7.02853e-11	6.68509e-11	-9.62109e-12	2.92433e-11	2.23537e-13	1.68654e-13	-3.24498e-13	4.36934e-13	
2.50654e-09	1.15765e-09	-1.7266e-09	1.55495e-09	7.02853e-11	6.68509e-11	-9.62109e-12	2.92433e-11	2.23537e-13	1.68654e-13	-3.24498e-13	4.36934e-13	
2.50654e-09	1.15765e-09	-1.7266e-09	1.55495e-09	7.02853e-11	6.68509e-11	-9.62109e-12	2.92433e-11	2.23537e-13	1.68654e-13	-3.24498e-13	4.36934e-13	
2.50654e-09	1.15765e-09	-1.7266e-09	1.55495e-09	7.02853e-11	6.68509e-11	-9.62109e-12	2.92433e-11	2.23537e-13	1.68654e-13	-3.24498e-13	4.36934e-13	
2.50654e-09	1.15765e-09	-1.7266e-09	1.55495e-09	7.02853e-11	6.68509e-11	-9.62109e-12	2.92433e-11	2.23537e-13	1.68654e-13	-3.24498e-13	4.36934e-13	
2.50654e-09	1.15765e-09	-1.7266e-09	1.55495e-09	7.02853e-11	6.68509e-11	-9.62109e-12	2.92433e-11	2.23537e-13	1.68654e-13	-3.24498e-13	4.36934e-13	
2.50654e-09	1.15765e-09	-1.7266e-09	1.55495e-09	7.02853e-11	6.68509e-11	-9.62109e-12	2.92433e-11	2.23537e-13	1.68654e-13	-3.24498e-13	4.36934e-13	
2.50654e-09	1.15765e-09	-1.7266e-09	1.55495e-09	7.02853e-11	6.68509e-11	-9.62109e-12	2.92433e-11	2.23537e-13	1.68654e-13	-3.24498e-13	4.36934e-13	
2.50654e-09	1.15765e-09	-1.7266e-09	1.55495e-09	7.02853e-11	6.68509e-11	-9.62109e-12	2.92433e-11	2.23537e-13	1.68654e-13	-3.24498e-13	4.36934e-13	
2.50654e-09	1.15765e-09	-1.7266e-09	1.55495e-09	7.02853e-11	6.68509e-11	-9.62109e-12	2.92433e-11	2.23537e-13	1.68654e-13	-3.24498e-13	4.36934e-13	
2.50654e-09	1.15765e-09	-1.7266e-09	1.55495e-09	7.02853e-11	6.68509e-11	-9.62109e-12	2.92433e-11	2.23537e-13	1.68654e-13	-3.24498e-13	4.36934e-13	
2.50654e-09	1.15765e-09	-1.7266e-09	1.55495e-09	7.02853e-11	6.68509e-11	-9.62109e-12	2.92433e-11	2.23537e-13	1.68654e-13	-3.24498e-13	4.36934e-13	
2.50654e-09	1.15765e-09	-1.7266e-09	1.55495e-09	7.02853e-11	6.68509e-11	-9.62109e-12	2.92433e-11	2.23537e-13	1.68654e-13	-3.24498e-13	4.36934e-13	
2.50654e-09	1.15765e-09	-1.7266e-09	1.55495e-09	7.02853e-11	6.68509e-11	-9.62109e-12	2.92433e-11	2.23537e-13	1.68654e-13	-3.24498e-13	4.36934e-13	
2.50654e-09	1.15765e-09	-1.7266e-09	1.55495e-09	7.02853e-11	6.68509e-11	-9.62109e-12	2.92433e-11	2.23537e-13	1.68654e-13	-3.24498e-13	4.36934e-13	
2.50654e-09	1.15765e-09	-1.7266e-09	1.55495e-09	7.02853e-11	6.68509e-11	-9.62109e-12	2.92433e-11	2.23537e-13	1.68654e-13	-3.24498e-13	4.36934e-13	
2.50654e-09	1.15765e-09	-1.7266e-09	1.55495e-09	7.02853e-11	6.68509e-11	-9.62109e-12	2.92433e-11	2.23537e-13	1.68654e-13	-3.24498e-13	4.36934e-13	
2.50654e-09	1.15765e-09	-1.7266e-09	1.55495e-09	7.02853e-11	6.68509e-11	-9.62109e-12	2.92433e-11	2.23537e-13	1.68654e-13	-3.24498e-13	4.36934e-13	
2.50654e-09	1.15765e-09	-1.7266e-09	1.55495e-09	7.02853e-11	6.68509e-11	-9.62109e-12	2.92433e-11	2.23537e-13	1.68654e-13	-3.24498e-13	4.36934e-13	
2.50654e-09	1.15765e-09	-1.7266e-09	1.55495e-09	7.02853e-11	6.68509e-11	-9.62109e-12	2.92433e-11	2.23537e-13	1.68654e-13	-3.24498e-13	4.36934e-13	
2.50654e-09	1.15765e-09	-1.7266e-09	1.55495e-09	7.02853e-11	6.68509e-11	-9.62109e-12	2.92433e-11	2.23537e-13	1.68654e-13	-3.24498e-13	4.36934e-13	
2.50654e-09	1.15765e-09	-1.7266e-09	1.55495e-09	7.02853e-11	6.68509e-11	-9.62109e-12	2.92433e-11	2.23537e-13	1.68654e-13	-3.24498e-13	4.36934e-13	
2.50654e-09	1.15765e-09	-1.7266e-09	1.55495e-09	7.02853e-11	6.68509e-11	-9.62109e-12	2.92433e-11	2.23537e-13	1.68654e-13	-3.24498e-13	4.36934e-13	
2.50654e-09	1.15765e-09	-1.7266e-09	1.55495e-09	7.02853e-11	6.68509e-11	-9.62109e-12	2.92433e-11	2.23537e-13	1.68654e-13	-3.24498e-13	4.36934e-13	
2.50654e-09	1.15765e-09	-1.7266e-09	1.55495e-09	7.02853e-11	6.68509e-11	-9.62109e-12	2.92433e-11	2.23537e-13	1.68654e-13	-3.24498e-13	4.36934e-13	
2.50654e-09	1.15765e-09	-1.7266e-09	1.55495e-09	7.02853e-11	6.68509e-11	-9.62109e-12	2.92433e-11	2.23537e-13	1.68654e-13	-3.24498e-13	4.36934e-13	
2.50654e-09	1.15765e-09	-1.7266e-09	1.55495e-09	7.02853e-11	6.68509e-11	-9.62109e-12	2.92433e-11	2.23537e-13	1.68654e-13	-3.24498e-13	4.36934e-13	
2.50654e-09	1.15765e-09	-1.7266e-09	1.55495e-09	7.02853e-11	6.68509e-11	-9.62109e-12	2.92433e-11	2.23537e-13	1.68654e-13	-3.24498e-13	4.36934e-13	
2.50654e-09	1.15765e-09	-1.7266e-09	1.55495e-09	7.02853e-11	6.68509e-11	-9.62109e-12	2.92433e-11	2.23537e-13	1.68654e-13	-3.24498e-13	4.36934e-13	
2.50654e-09	1.15765e-09	-1.7266e-09	1.55495e-09	7.02853e-11	6.68509e-11	-9.62109e-12	2.92433e-11	2.23537e-13	1.68654e-13	-3.24498e-13	4.36934e-13	
2.50654e-09	1.15765e-09	-1.7266e-09	1.55495e-09	7.02853e-11	6.68509e-11	-9.62109e-12	2.92433e-11	2.23537e-13	1.68654e-13	-3.24498e-13	4.36934e-13	
2.50654e-09	1.15765e-09	-1.7266e-09	1.55495e-09	7.02853e-11	6.68509e-11	-9.62109e-12	2.92433e-11	2.23537e-13	1.68654e-13	-3.24498e-13	4.36934e-13	
2.50654e-09	1.15765e-09	-1.7266e-09	1.55495e-09	7.02853e-11	6.68509e-11	-9.62109e-12	2.92433e-11	2.23537e-13	1.68654e-13	-3.24498e-13	4.36934e-13	
2.50654e-09	1.15765e-09	-1.7266e-09	1.55495e-09	7.02853e-11	6.68509e-11	-9.62109e-12	2.92433e-11	2.23537e-13	1.68654e-13	-3.24498e-13	4.36934e-13	
2.50654e-09	1.15765e-09	-1.7266e-09	1.55495e-09	7.02853e-11	6.68509e-11	-9.62109e-12	2.92433e-11	2.23537e-13	1.68654e-13	-3.24498e-13	4.36934e-13	
2.50654e-09	1.15765e-09	-1.7266e-09	1.55495e-09	7.02853e-11	6.68509e-11	-9.62109e-12	2.92433e-11	2.23537e-13	1.68654e-13	-3.24498e-13	4.36934e-13	
2.50654e-09	1.15765e-09	-1.7266e-09	1.55495e-09	7.02853e-11	6.68509e-11	-9.62109e-12	2.92433e-11	2.23537e-13	1.68654e-13	-3.24498e-13	4.36934e-13	
2.50654e-09	1.15765e-09	-1.7266e-09	1.55495e-09	7.02853e-11	6.68509e-11	-9.62109e-12	2.92433e-11	2.23537e-13	1.68654e-13	-3.24498e-13	4.36934e-13	
2.50654e-09	1.15765e-09	-1.7266e-09	1.55495e-09	7.02853e-11	6.68509e-11	-9.62109e-12	2.92433e-11	2.23537e-13	1.68654e-13	-3.24498e-13	4.36934e-13	
2.50654e-09	1.15765e-09	-1.7266e-09	1.55495e-09	7.02853e-11	6.68509e-11	-9.62109e-12	2.92433e-11	2.23537e-13	1.68654e-13	-3.24498e-13	4.36934e-13	
2.50654e-09	1.15765e-09	-1.7266e-09	1.55495e-09	7.02853e-11	6.68509e-11	-9.62109e-12	2.92433e-11	2.23537e-13	1.68654e-13	-3.24498e-13	4.36934e-13	
2.50654e-09	1.15765e-09	-1.7266e-09	1.55495e-09	7.02853e-11	6.68509e-11	-9.62109e-12	2.92433e-11	2.23537e-13	1.68654e-13	-3.24498e-13	4.36934e-13	
2.50654e-09	1.15765e-09	-1.7266e-09	1.55495e-09	7.02853e-11	6.68509e-11	-9.62109e-12	2.92433e-11	2.23537e-13	1.68654e-13	-3.24498e-13	4.36934e-13	
2.50654e-09	1.15765e-09	-1.7266e-09	1.55495e-09	7.02853e-11	6.68509e-11	-9.62109e-12	2.92433e-11	2.23537e-13	1.68654e-13	-3.24498e-13	4.36934e-13	
2.50654e-09	1.15765e-09	-1.7266e-09	1.55495e-09	7.02853e-11	6.68509e-11	-9.62109e-12	2.92433e-11	2.23537e-13	1.68654e-13	-3.24498e-13	4.36934e-13	
2.50654e-09	1.15765e-09	-1.7266e-09	1.55495e-09	7.02853e-11	6.68509e-11	-9.62109e-12	2.92433e-11	2.23537e-13	1.68654e-13	-3.24498e-13	4.36934e-13	
2.50654e-09	1.15765e-09	-1.7266e-09	1.55495e-09	7.02853e-11	6.68509e-11	-9.62109e-12	2.92433e-11	2.23537e-13	1.68654e-13	-3.24498e-13	4.36934e-13	
2.50654e-09	1.15765e-09	-1.7266e-09	1.55495e-09	7.02853e-11	6.68509e-11	-9.62109e-12	2.92433e-11	2.23537e-13	1.68654e-13	-3.24498e-13	4.36934e-13	
2.50654e-09	1.15765e-09	-1.7266e-09	1.55495e-09	7.02853e-11	6.68509e-11	-9.62109e-12	2.92433e-11	2.23537e-13	1.68654e-13	-3.24498e-13	4.36934e-13	
2.50654e-09	1.15765e-09	-1.7266e-09	1.55495e-09	7.02853e-11	6.68509e-11	-9.62109e-12	2.92433e-11	2.23537e-13	1.68654e-13	-3.24498e-13	4.36934e-13	
2.50654e-09	1.15765e-09	-1.7266e-09	1.55495e-09	7.02853e-11	6.68509e-11	-9.62109e-12	2.92433e-11	2.23537e-13	1.68654e-13	-3.24498e-13	4.36934e-13	
2.50654e-09	1.15765e-09	-1.7266e-09	1.55495e-09	7.02853e-11	6.68509e-11	-9.62109e-12	2.92433e-11	2.23537e-13	1.68654e-13	-3.24498e-13	4.36934e-13	
2.50654e-09	1.15765e-09	-1.7266e-09	1.55495e-09	7.02853e-11	6.68509e-11	-9.62109e-12	2.92433e-11	2.23537e-13	1.68654e-13	-3.24498e-13	4.36934e-13	
2.50654e-09	1.15765e-09	-1.7266e-09	1.55495e-09	7.02853e-11	6.68509e-11	-9.62109e-12	2.92433e-11	2.23537e-13	1.68654e-13	-3.24498e-13	4.36934e-13	
2.50654e-09	1.15765e-09	-1.7266e-09	1.55495e-09	7.02853e-11	6.68509e-11	-9.62109e-12	2.92433e-11	2.23537e-13	1.68654e-13	-3.24498e-13	4.36934e-13	
2.50654e-09	1.15765e-09	-1.7266e-09	1.55495e-09	7.02853e-11	6.68509e-11	-9.62109e-12	2.92433e-11	2.23537e-13	1.68654e-13	-3.24498e-13	4.36934e-13	
2.50654e-09	1.15765e-09	-1.7266e-09	1.55495e-09	7.02853e-11	6.68509e-11	-9.62109e-12	2.92433e-11	2.23537e-13	1.68654e-13	-3.24498e-13	4.36934e-13	
2.50654e-09	1.15765e-09	-1.7266e-09	1.55495e-09	7.02853e-11	6.68509e-11	-9.62109e-12	2.92433e-11	2.23537e-13	1.68654e-13	-3.24498e-13	4.36934e-13	
2.50654e-09	1.15765e-09	-1.7266e-09	1.55495e-09	7.02853e-11	6.68509e-11	-9.62109e-12	2.92433e-11	2.23537e-13	1.68654e-13	-3.24498e-13	4.36934e-13	
2.50654e-09	1.15765e-09	-1.7266e-09	1.55495e-09	7.02853e-11	6.68509e-11	-9.62109e-12	2.92433e-11	2.23537e-13	1.68654e-13	-3.24498e-13	4.36934e-13	
2.50654e-09	1.15765e-09	-1.7266e-09	1.55495e-09	7.02853e-11	6.68509e-11	-9.62109e-12	2.92433e-11	2.23537e-13	1.68654e-13	-3.24498e-13	4.36934e-13	
2.50654e-09	1.15765e-09	-1.7266e-09	1.55495e-09	7.02853e-11	6.68509e-11	-9.62109e-12	2.92433e-11	2.23537e-13	1.68654e-13	-3.24498e-13	4.36934e-13	
2.50654e-09	1.15765e-09	-1.7266e-09	1.55495e-09	7.02853e-11	6.68509e-11	-9.62109e-12	2.92433e-11	2.23537e-13	1.68654e-13	-3.24498e-13	4.36934e-13	
2.50654e-09	1.15765e-09	-1.7266e-09	1.55495e-09	7.02853e-11	6.68509e-11	-9.62109e-12	2.92433e-11	2.23537e-13	1.68654e-13	-3.24498e-13	4.36934e-13	
2.50654e-09	1.15765e-09	-1.7266e-09	1.55495e-09	7.02853e-11	6.68509e-11	-9.62109e-12	2.92433e-11	2.23537e-13	1.68654e-13	-3.24498e-13	4.36934e-13	
2.50654e-09	1.15765e-09	-1.7266e-09	1.55495e-09	7.02853e-11	6.68509e-11	-9.62109e-12	2.92433e-11	2.23537e-13	1.68654e-13	-3.24498e-13	4.36934e-13	
2.50654e-09	1.15765e-09	-1.7266e-09	1.55495e-09	7.02853e-11	6.68509e-11	-9.62109e-12	2.92433e-11	2.23537e-13	1.68654e-13	-3.24498e-13	4.36934e-13	
2.50654e-09	1.15765e-09	-1.7266e-09	1.55495e-09	7.02853e-11	6.68509e-11	-9.62109e-12	2.92433e-11	2.23537e-13	1.68654e-13	-3.24498e-13	4.36934e-13	
2.50654e-09	1.15765e-09	-1.7266e-09	1.55495e-09	7.02853e-11	6.68509e-11	-9.62109e-12	2.92433e-11	2.23537e-13	1.68654e-13	-3.24498e-13	4.36934e-13	
2.50654e-09	1.15765e-09	-1.7266e-09	1.55495e-09	7.02853e-11	6.68509e-11	-9.62109e-12	2.92433e-11	2.23537e-13	1.68654e-13	-3.24498e-13	4.36934e-13	
2.50654e-09	1.15765e-09	-1.7266e-09	1.55495e-09	7.02853e-11	6.68509e-11	-9.62109e-12	2.92433e-11	2.23537e-13	1.68654e-13	-3.24498e-13	4.36934e-13	
2.50654e-09	1.15765e-09	-1.7266e-09	1.55495e-09	7.02853e-11	6.68509e-11	-9.62109e-12	2.92433e-11	2.23537e-13	1.68654e-13	-3.24498e-13	4.36934e-13	
2.50654e-09	1.15765e-09	-1.7266e-09	1.55495e-09	7.02853e-11	6.68509e-11	-9.62109e-12	2.92433e-11	2.23537e-13	1.68654e-13	-3.24498e-13	4.36934e-13	
2.50654e-09	1.15765e-09	-1.7266e-09	1.55495e-09	7.02853e-11	6.68509e-11	-9.62109e-12	2.92433e-11	2.23537e-13	1.68654e-13	-3.24498e-13	4.36934e-13	
2.50654e-09	1.15765e-09	-1.7266e-09	1.55495e-09	7.02853e-11	6.68509e-11	-9.62109e-12	2.92433e-11	2.23537e-13	1.68654e-13	-3.24498e-13	4.36934e-13	
2.50654e-09	1.15765e-09	-1.7266e-09	1.55495e-09	7.02853e-11	6.68509e-11	-9.62109e-12	2.92433e-11	2.23537e-13	1.68654e-13	-3.24498e-13	4.36934e-13	
2.50654e-09	1.15765e-09	-1.7266e-09	1.55495e-09	7.02853e-11	6.68509e-11	-9.62109e-12	2.92433e-11	2.23537e-13	1.68654e-13	-3.24498e-13	4.36934e-13	
2.50654e-09	1.15765e-09	-1.7266e-09	1.55495e-09	7.02853e-11	6.68509e-11	-9.62109e-12	2.92433e-11	2.23537e-13	1.68654e-13	-3.24498e-13	4.36934e-13	
2.50654e-09	1.15765e-09	-1.7266e-09	1.55495e-09	7.02853e-11	6.68509e-11	-9.62109e-12	2.92433e-11	2.23537e-13	1.68654e-13	-3.24498e-13	4.36934e-13	
2.50654e-09	1.15765e-09	-1.7266e-09	1.55495e-09	7.02853e-11	6.68509e-11	-9.62109e-12	2.92433e-11	2.23537e-13	1.68654e-13	-3.24498e-13	4.36934e-13	
2.50654e-09	1.15765e-09	-1.7266e-09	1.55495e-09	7.02853e-11	6.68509e-11	-9.62109e-12	2.92433e-11	2.23537e-13	1.68654e-13	-3.24498e-13	4.36934e-13	
2.50654e-09	1.15765e-09	-1.7266e-09	1.55495e-09	7.02853e-11	6.68509e-11	-9.62109e-12	2.92433e-11	2.23537e-13	1.68654e-13	-3.24498e-13	4.36934e-13	
2.50654e-09	1.15765e-09	-1.7266e-09	1.55495e-09	7.02853e-11	6.68509e-11	-9.62109e-12	2.92433e-11	2.23537e-13	1.68654e-13	-3.24498e-13	4.36934e-13	
2.50654e-09	1.15765e-09	-1.7266e-09	1.55495e-09	7.02853e-11	6.68509e-11	-9.62109e-12	2.92433e-11	2.23537e-13	1.68654e-13	-3.24498e-13	4.36934e-13	
2.50654e-09	1.15765e-09	-1.7266e-09	1.55495e-09	7.02853e-11	6.68509e-11	-9.62109e-12	2.92433e-11	2.23537e-13	1.68654e-13	-3.24498e-13	4.36934e-13	
2.50654e-09	1.15765e-09	-1.7266e-09	1.55495e-09	7.02853e-11	6.68509e-11	-9.62109e-12	2.92433e-11	2.23537e-13	1.68654e-13	-3.24498e-13	4.36934e-13	
2.50654e-09	1.15765e-09	-1.7266e-09	1.55495e-09	7.02853e-11	6.68509e-11	-9.62109e-12	2.92433e-11	2.23537e-13	1.68654e-13	-3.24498e-13	4.36934e-13	
2.50654e-09	1.15765e-09	-1.7266e-09	1.55495e-09	7.02853e-11	6.68509e-11	-9.62109e-12	2.92433e-11	2.23537e-13	1.68654e-13	-3.24498e-13	4.36934e-13	
2.50654e-09	1.15765e-09	-1.7266e-09	1.55495e-09	7.02853e-11	6.68509e-11	-9.62109e-12	2.92433e-11	2.23537e-13	1.68654e-13	-3.24498e-13	4.36934e-13	
2.50654e-09	1.15765e-09	-1.7266e-09	1.55495e-09	7.02853e-11	6.68509e-11	-9.62109e-12	2.92433e-11	2.23537e-13	1.68654e-13	-3.24498e-13	4.36934e-13	
2.50654e-09	1.15765e-09	-1.7266e-09	1.55495e-09	7.02853e-11	6.68509e-11	-9.62109e-12	2.92433e-11	2.23537e-13	1.68654e-13	-3.24498e-13	4.36934e-13	
2.50654e-09	1.15765e-09	-1.7266e-09	1.55495e-09	7.02853e-11	6.68509e-11	-9.62109e-12	2.92433e-11	2.23537e-13	1.68654e-13	-3.24498e-13	4.36934e-13	
2.50654e-09	1.15765e-09	-1.7266e-09	1.55495e-09	7.02853e-11	6.68509e-11	-9.62109e-12	2.92433e-11	2.23537e-13	1.68654e-13	-3.24498e-13	4.36934e-13	
2.50654e-09	1.15765e-09	-1.7266e-09	1.55495e-09	7.02853e-11	6.68509e-11	-9.62109e-12	2.92433e-11	2.23537e-13	1.68654e-13	-3.24498e-13	4.36934e-13	
2.50654e-09	1.15765e-09	-1.7266e-09	1.55495e-09	7.02853e-11	6.68509e-11	-9.62109e-12	2.92433e-11	2.23537e-13	1.68654e-13	-3.24498e-13	4.36934e-13	
2.50654e-09	1.15765e-09	-1.7266e-09	1.55495e-09	7.02853e-11	6.68509e-11	-9.62109e-12	2.92433e-11	2.23537e-13	1.68654e-13	-3.24498e-13	4.36934e-13	
2.50654e-09	1.15765e-09	-1.7266e-09	1.55495e-09	7.02853e-11	6.68509e-11	-9.62109e-12	2.92433e-11	2.23537e-13	1.68654e-13	-3.24498e-13	4.36934e-13	
2.50654e-09	1.15765e-09	-1.7266e-09	1.55495e-09	7.02853e-11	6.68509e-11	-9.62109e-12	2.92433e-11	2.23537e-13	1.68654e-13	-3.24498e-13	4.36934e-13	
2.50654e-09	1.15765e-09	-1.7266e-09	1.55495e-09	7.02853e-11	6.68509e-11	-9.62109e-12	2.92433e-11	2.23537e-13	1.68654e-13	-3.24498e-13	4.36934e-13	
2.50654e-09	1.15765e-09	-1.7266e-09	1.55495e-09	7.02853e-11	6.68509e-11	-9.62109e-12	2.92433e-11	2.23537e-13	1.68654e-13	-3.24498e-13	4.36934e-13	
2.50654e-09	1.15765e-09	-1.7266e-09	1.55495e-09	7.02853e-11	6.68509e-11	-9.62109e-12	2.92433e-11	2.23537e-13	1.68654e-13	-3.24498e-13	4.36934e-13	
2.50654e-09	1.15765e-09	-1.7266e-09	1.55495e-09	7.02853e-11	6.68509e-11	-9.62109e-12	2.92433e-11	2.23537e-13	1.68654e-13	-3.24498e-13	4.36934e-13	
2.50654e-09	1.15765e-09	-1.7266e-09	1.55495e-09	7.02853e-11	6.68509e-11	-9.62109e-12	2.92433e-11	2.23537e-13	1.68654e-13	-3.24498e-13	4.36934e-13	
2.50654e-09	1.15765e-09	-1.7266e-09	1.55495e-09	7.02853e-11	6.68509e-11	-9.62109e-12	2.92433e-11	2.23537e-13	1.68654e-13	-3.24498e-13	4.36934e-13	
2.50654e-09	1.15765e-09	-1.7266e-09	1.55495e-09	7.02853e-11	6.68509e-11	-9.62109e-12	2.92433e-11	2.23537e-13	1.68654e-13	-3.24498e-13	4.36934e-13	
2.50654e-09	1.15765e-09	-1.7266e-09	1.55495e-09	7.02853e-11	6.68509e-11	-9.62109e-12	2.92433e-11	2.23537e-13	1.68654e-13	-3.24498e-13	4.36934e-13	
2.50654e-09	1.15765e-09	-1.7266e-09	1.55495e-09	7.02853e-11	6.68509e-11	-9.62109e-12	2.92433e-11	2.23537e-13	1.68654e-13	-3.24498e-13	4.36934e-13	
2.50654e-09	1.15765e-09	-1.7266e-09	1.55495e-09	7.02853e-11	6.68509e-11	-9.62109e-12	2.92433e-11	2.23537e-13	1.68654e-13	-3.24498e-13	4.36934e-13	
2.50654e-09	1.15765e-09	-1.7266e-09	1.55495e-09	7.02853e-11	6.68509e-11	-9.62109e-12	2.92433e-11	2.23537e-13	1.68654e-13	-3.24498e-13	4.36934e-13	
2.50654e-09	1.15765e-09	-1.7266e-09	1.55495e-09	7.02853e-11	6.68509e-11	-9.62109e-12	2.92433e-11	2.23537e-13	1.68654e-13	-3.24498e-13	4.36934e-13	
2.50654e-09	1.15765e-09	-1.7266e-09	1.55495e-09	7.02853e-11	6.68509e-11	-9.62109e-12	2.92433e-11	2.23537e-13	1.68654e-13	-3.24498e-13	4.36934e-13	
2.50654e-09	1.15765e-09	-1.7266e-09	1.55495e-09	7.02853e-11	6.68509e-11	-9.62109e-12	2.92433e-11	2.23537e-13	1.68654e-13	-3.24498e-13	4.36934e-13	
2.50654e-09	1.15765e-09	-1.7266e-09	1.55495e-09	7.02853e-11	6.68509e-11	-9.62109e-12	2.92433e-11	2.23537e-13	1.68654e-13	-3.24498e-13	4.36934e-13	
2.50654e-09	1.15765e-09	-1.7266e-09	1.55495e-09	7.02853e-11	6.68509e-11	-9.62109e-12	2.92433e-11	2.23537e-13	1.68654e-13	-3.24498e-13	4.36934e-13	
2.50654e-09	1.15765e-09	-1.7266e-09	1.55495e-09	7.02853e-11	6.68509e-11	-9.62109e-12	2.92433e-11	2.23537e-13	1.68654e-13	-3.24498e-13	4.36934e-13	
2.50654e-09	1.15765e-09	-1.7266e-09	1.55495e-09	7.02853e-11	6.68509e-11	-9.62109e-12	2.92433e-11	2.23537e-13	1.68654e-13	-3.24498e-13	4.36934e-13	
2.50654e-09	1.15765e-09	-1.7266e-09	1.55495e-09	7.02853e-11	6.68509e-11	-9.62109e-12	2.92433e-11	2.23537e-13	1.68654e-13	-3.24498e-13	4.36934e-13	
2.50654e-09	1.15765e-09	-1.7266e-09	1.55495e-09	7.02853e-11	6.68509e-11	-9.62109e-12	2.92433e-11	2.23537e-13	1.68654e-13	-3.24498e-13	4.36934e-13	
2.50654e-09	1.15765e-09	-1.7266e-09	1.55495e-09	7.02853e-11	6.68509e-11	-9.62109e-12	2.92433e-11	2.23537e-13	1.68654e-13	-3.24498e-13	4.36934e-13	
2.50654e-09	1.15765e-09	-1.7266e-09	1.55495e-09	7.02853e-11	6.68509e-11	-9.62109e-12	2.92433e-11	2.23537e-13	1.68654e-13	-3.24498e-13	4.36934e-13	
2.50654e-09	1.15765e-09	-1.7266e-09	1.55495e-09	7.02853e-11	6.68509e-11	-9.62109e-12	2.92433e-11	2.23537e-13	1.68654e-13	-3.24498e-13	4.36934e-13	
2.50654e-09	1.15765e-09	-1.7266e-09	1.55495e-09	7.02853e-11	6.68509e-11	-9.62109e-12	2.92433e-11	2.23537e-13	1.68654e-13	-3.24498e-13	4.36934e-13	
2.50654e-09	1.15765e-09	-1.7266e-09	1.55495e-09	7.02853e-11	6.68509e-11	-9.62109e-12	2.92433e-11	2.23537e-13	1.68654e-13	-3.24498e-13	4.36934e-13	
2.50654e-09	1.15765e-09	-1.7266e-09	1.55495e-09	7.02853e-11	6.68509e-11	-9.62109e-12	2.92433e-11	2.23537e-13	1.68654e-13	-3.24498e-13	4.36934e-13	
2.50654e-09	1.15765e-09	-1.7266e-09	1.55495e-09	7.02853e-11	6.68509e-11	-9.62109e-12	2.92433e-11	2.23537e-13	1.68654e-13	-3.24498e-13	4.36934e-13	
2.50654e-09	1.15765e-09	-1.7266e-09	1.55495e-09	7.02853e-11	6.68509e-11	-9.62109e-12	2.92433e-11	2.23537e-13	1.68654e-13	-3.24498e-13	4.36934e-13	
2.50654e-09	1.15765e-09	-1.7266e-09	1.55495e-09	7.02853e-11	6.68509e-11	-9.62109e-12	2.92433e-11	2.23537e-13	1.68654e-13	-3.24498e-13	4.36934e-13	
2.50654e-09	1.15765e-09	-1.7266e-09	1.55495e-09	7.02853e-11	6.68509e-11	-9.62109e-12	2.92433e-11	2.23537e-13	1.68654e-13	-3.24498e-13	4.36934e-13	
2.50654e-09	1.15765e-09	-1.7266e-09	1.55495e-09	7.02853e-11	6.68509e-11	-9.62109e-12	2.92433e-11	2.23537e-13	1.68654e-13	-3.24498e-13	4.36934e-13	
2.50654e-09	1.15765e-09	-1.7266e-09	1.55495e-09	7.02853e-11	6.68509e-11	-9.62109e-12	2.92433e-11	2.23537e-13	1.68654e-13	-3.24498e-13	4.36934e-13	
2.50654e-09	1.15765e-09	-1.7266e-09	1.55495e-09	7.02853e-11	6.68509e-11	-9.62109e-12	2.92433e-11	2.23537e-13	1.68654e-13	-3.24498e-13	4.36934e-13	
2.50654e-09	1.15765e-09	-1.7266e-09	1.55495e-09	7.02853e-11	6.68509e-11	-9.62109e-12	2.92433e-11	2.23537e-13	1.68654e-13	-3.24498e-13	4.36934e-13	
2.50654e-09	1.15765e-09	-1.7266e-09	1.55495e-09	7.02853e-11	6.68509e-11	-9.62109e-12	2.92433e-11	2.23537e-13	1.68654e-13	-3.24498e-13	4.36934e-13	
2.50654e-09	1.15765e-09	-1.7266e-09	1.55495e-09	7.02853e-11	6.68509e-11	-9.62109e-12	2.92433e-11	2.23537e-13	1.68654e-13	-3.24498e-13	4.36934e-13	
2.50654e-09	1.15765e-09	-1.7266e-09	1.55495e-09	7.02853e-11	6.68509e-11	-9.62109e-12	2.92433e-11	2.23537e-13	1.68654e-13	-3.24498e-13	4.36934e-13	
2.50654e-09	1.15765e-09	-1.7266e-09	1.55495e-09	7.02853e-11	6.68509e-11	-9.62109e-12	2.92433e-11	2.23537e-13	1.68654e-13	-3.24498e-13	4.36934e-13	
2.50654e-09	1.15765e-09	-1.7266e-09	1.55495e-09	7.02853e-11	6.68509e-11	-9.62109e-12	2.92433e-11	2.23537e-13	1.68654e-13	-3.24498e-13	4.36934e-13	
2.50654e-09	1.15765e-09	-1.7266e-09	1.55495e-09	7.02853e-11	6.68509e-11	-9.62109e-12	2.92433e-11	2.23537e-13	1.68654e-13	-3.24498e-13	4.36934e-13	
2.50654e-09	1.15765e-09	-1.7266e-09	1.55495e-09	7.02853e-11	6.68509e-11	-9.62109e-12	2.92433e-11	2.23537e-13	1.68654e-13	-3.24498e-13	4.36934e-13	
2.50654e-09	1.15765e-09	-1.7266e-09	1.55495e-09	7.02853e-11	6.68509e-11	-9.62109e-12	2.92433e-11	2.23537e-13	1.68654e-13	-3.24498e-13	4.36934e-13	
2.50654e-09	1.15765e-09	-1.7266e-09	1.55495e-09	7.02853e-11	6.68509e-11	-9.62109e-12	2.92433e-11	2.23537e-13	1.68654e-13	-3.24498e-13	4.36934e-13	
2.50654e-09	1.15765e-09	-1.7266e-09	1.55495e-09	7.02853e-11	6.68509e-11	-9.62109e-12	2.92433e-11	2.23537e-13	1.68654e-13	-3.24498e-13	4.36934e-13	
2.50654e-09	1.15765e-09	-1.7266e-09	1.55495e-09	7.02853e-11	6.68509e-11	-9.62109e-12	2.92433e-11	2.23537e-13	1.68654e-13	-3.24498e-13	4.36934e-13	
2.50654e-09	1.15765e-09	-1.7266e-09	1.55495e-09	7.02853e-11	6.68509e-11	-9.62109e-12	2.92433e-11	2.23537e-13	1.68654e-13	-3.24498e-13	4.36934e-13	
2.50654e-09	1.15765e-09	-1.7266e-09	1.55495e-09	7.02853e-11	6.68509e-11	-9.62109e-12	2.92433e-11	2.23537e-13	1.68654e-13	-3.24498e-13	4.36934e-13	
2.50654e-09	1.15765e-09	-1.7266e-09	1.55495e-09	7.02853e-11	6.68509e-11	-9.62109e-12	2.92433e-11	2.23537e-13	1.68654e-13	-3.24498e-13	4.36934e-13	
2.50654e-09	1.15765e-09	-1.7266e-09	1.55495e-09	7.02853e-11	6.68509e-11	-9.62109e-12	2.92433e-11	2.23537e-13	1.68654e-13	-3.24498e-13	4.36934e-13	
2.50654e-09	1.15765e-09	-1.7266e-09	1.55495e-09	7.02853e-11	6.68509e-11	-9.62109e-12	2.92433e-11	2.23537e-13	1.68654e-13	-3.24498e-13	4.36934e-13	
2.50654e-09	1.15765e-09	-1.7266e-09	1.55495e-09	7.02853e-11	6.68509e-11	-9.62109e-12	2.92433e-11	2.23537e-13	1.68654e-13	-3.24498e-13	4.36934e-13	
2.50654e-09	1.15765e-09	-1.7266e-09	1.55495e-09	7.02853e-11	6.68509e-11	-9.62109e-12	2.92433e-11	2.23537e-13	1.68654e-13	-3.24498e-13	4.36934e-13	
2.50654e-09	1.15765e-09	-1.7266e-09	1.55495e-09	7.02853e-11	6.68509e-11	-9.62109e-12	2.92433e-11	2.23537e-13	1.68654e-13	-3.24498e-13	4.36934e-13	
2.50654e-09	1.15765e-09	-1.7266e-09	1.55495e-09	7.02853e-11	6.68509e-11	-9.62109e-12	2.92433e-11	2.23537e-13	1.68654e-13	-3.24498e-13	4.36934e-13	
2.50654e-09	1.15765e-09	-1.7266e-09	1.55495e-09	7.02853e-11	6.68509e-11	-9.62109e-12	2.92433e-11	2.23537e-13	1.68654e-13	-3.24498e-13	4.36934e-13	
2.50654e-09	1.15765e-09	-1.7266e-09	1.55495e-09	7.02853e-11	6.68509e-11	-9.62109e-12	2.92433e-11	2.23537e-13	1.68654e-13	-3.24498e-13	4.36934e-13	
2.50654e-09	1.15765e-09	-1.7266e-09	1.55495e-09	7.02853e-11	6.68509e-11	-9.62109e-12	2.92433e-11	2.23537e-13	1.68654e-13	-3.24498e-13	4.36934e-13	
2.50654e-09	1.15765e-09	-1.7266e-09	1.55495e-09	7.02853e-11	6.68509e-11	-9.62109e-12	2.92433e-11	2.23537e-13	1.68654e-13	-3.24498e-13	4.36934e-13	
2.50654e-09	1.15765e-09	-1.7266e-09	1.55495e-09	7.02853e-11	6.68509e-11	-9.62109e-12	2.92433e-11	2.23537e-13	1.68654e-13	-3.24498e-13	4.36934e-13	
2.50654e-09	1.15765e-09	-1.7266e-09	1.55495e-09	7.02853e-11	6.68509e-11	-9.62109e-12	2.92433e-11	2.23537e-13	1.68654e-13	-3.24498e-13	4.36934e-13	
2.50654e-09	1.15765e-09	-1.7266e-09	1.55495e-09	7.02853e-11	6.68509e-11	-9.62109e-12	2.92433e-11	2.23537e-13	1.68654e-13	-3.24498e-13	4.36934e-13	
2.50654e-09	1.15765e-09	-1.7266e-09	1.55495e-09	7.02853e-11	6.68509e-11	-9.62109e-12	2.92433e-11	2.23537e-13	1.68654e-13	-3.24498e-13	4.36934e-13	
2.50654e-09	1.15765e-09	-1.7266e-09	1.55495e-09	7.02853e-11	6.68509e-11	-9.62109e-12	2.92433e-11	2.23537e-13	1.68654e-13	-3.24498e-13	4.36934e-13	
2.50654e-09	1.15765e-09	-1.7266e-09	1.55495e-09	7.02853e-11	6.68509e-11	-9.62109e-12	2.92433e-11	2.23537e-13	1.68654e-13	-3.24498e-13	4.36934e-13	
2.50654e-09	1.15765e-09	-1.7266e-09	1.55495e-09	7.02853e-11	6.68509e-11	-9.62109e-12	2.92433e-11	2.23537e-13	1.68654e-13	-3.24498e-13	4.36934e-13	
2.50654e-09	1.15765e-09	-1.7266e-09	1.55495e-09	7.02853e-11	6.68509e-11	-9.62109e-12	2.92433e-11	2.23537e-13	1.68654e-13	-3.24498e-13	4.36934e-13	
2.50654e-09	1.15765e-09	-1.7266e-09	1.55495e-09	7.02853e-11	6.68509e-11	-9.62109e-12	2.92433e-11	2.23537e-13	1.68654e-13	-3.24498e-13	4.36934e-13	
2.50654e-09	1.15765e-09	-1.7266e-09	1.55495e-09	7.02853e-11	6.68509e-11	-9.62109e-12	2.92433e-11	2.23537e-13	1.68654e-13	-3.24498e-13	4.36934e-13	
2.50654e-09	1.15765e-09	-1.7266e-09	1.55495e-09	7.02853e-11	6.68509e-11	-9.62109e-12	2.92433e-11	2.23537e-13	1.68654e-13	-3.24498e-13	4.36934e-13	
2.50654e-09	1.15765e-09	-1.7266e-09	1.55495e-09	7.02853e-11	6.68509e-11	-9.62109e-12	2.92433e-11	2.23537e-13	1.68654e-13	-3.24498e-13	4.36934e-13	
2.50654e-09	1.15765e-09	-1.7266e-09	1.55495e-09	7.02853e-11	6.68509e-11	-9.62109e-12	2.92433e-11	2.23537e-13	1.68654e-13	-3.24498e-13	4.36934e-13	
2.50654e-09	1.15765e-09	-1.7266e-09	1.55495e-09	7.02853e-11	6.68509e-11	-9.62109e-12	2.92433e-11	2.23537e-13	1.68654e-13	-3.24498e-13	4.36934e-13	
2.50654e-09	1.15765e-09	-1.7266e-09	1.55495e-09	7.02853e-11	6.68509e-11	-9.62109e-12	2.92433e-11	2.23537e-13	1.68654e-13	-3.24498e-13	4.36934e-13	
2.50654e-09	1.15765e-09	-1.7266e-09	1.55495e-09	7.02853e-11	6.68509e-11	-9.62109e-12	2.92433e-11	2.23537e-13	1.68654e-13	-3.24498e-13	4.36934e-13	
2.50654e-09	1.15765e-09	-1.7266e-09	1.55495e-09	7.02853e-11	6.68509e-11	-9.62109e-12	2.92433e-11	2.23537e-13	1.68654e-13	-3.24498e-13	4.36934e-13	
2.50654e-09	1.15765e-09	-1.7266e-09	1.55495e-09	7.02853e-11	6.68509e-11	-9.62109e-12	2.92433e-11	2.23537e-13	1.68654e-13	-3.24498e-13	4.36934e-13	
2.50654e-09	1.15765e-09	-1.7266e-09	1.55495e-09	7.02853e-11	6.68509e-11	-9.62109e-12	2.92433e-11	2.23537e-13	1.68654e-13	-3.24498e-13	4.36934e-13	
2.50654e-09	1.15765e-09	-1.7266e-09	1.55495e-09	7.02853e-11	6.68509e-11	-9.62109e-12	2.92433e-11	2.23537e-13	1.68654e-13	-3.24498e-13	4.36934e-13	
2.50654e-09	1.15765e-09	-1.7266e-09	1.55495e-09	7.02853e-11	6.68509e-11	-9.62109e-12	2.92433e-11	2.23537e-13	1.68654e-13	-3.24498e-13	4.36934e-13	
2.50654e-09	1.15765e-09	-1.7266e-09	1.55495e-09	7.02853e-11	6.68509e-11	-9.62109e-12	2.92433e-11	2.23537e-13	1.68654e-13	-3.24498e-13	4.36934e-13	
2.50654e-09	1.15765e-09	-1.7266e-09	1.55495e-09	7.02853e-11	6.68509e-11	-9.62109e-12	2.92433e-11	2.23537e-13	1.68654e-13	-3.24498e-13	4.36934e-13	
2.50654e-09	1.15765e-09	-1.7266e-09	1.55495e-09	7.02853e-11	6.68509e-11	-9.62109e-12	2.92433e-11	2.23537e-13	1.68654e-13	-3.24498e-13	4.36934e-13	
2.50654e-09	1.15765e-09	-1.7266e-09	1.55495e-09	7.02853e-11	6.68509e-11	-9.62109e-12	2.92433e-11	2.23537e-13	1.68654e-13	-3.24498e-13	4.36934e-13	
2.50654e-09	1.15765e-09	-1.7266e-09	1.55495e-09	7.02853e-11	6.68509e-11	-9.62109e-12	2.92433e-11	2.23537e-13	1.68654e-13	-3.24498e-13	4.36934e-13	
2.50654e-09	1.15765e-09	-1.7266e-09	1.55495e-09	7.02853e-11	6.68509e-11	-9.62109e-12	2.92433e-11	2.23537e-13	1.68654e-13	-3.24498e-13	4.36934e-13	
2.50654e-09	1.15765e-09	-1.7266e-09	1.55495e-09	7.02853e-11	6.68509e-11	-9.62109e-12	2.92433e-11	2.23537e-13	1.68654e-13	-3.24498e-13	4.36934e-13	
2.50654e-09	1.15765e-09	-1.7266e-09	1.55495e-09	7.02853e-11	6.68509e-11	-9.62109e-12	2.92433e-11	2.23537e-13	1.68654e-13	-3.24498e-13	4.36934e-13	
2.50654e-09	1.15765e-09	-1.7266e-09	1.55495e-09	7.02853e-11	6.68509e-11	-9.62109e-12	2.92433e-11	2.23537e-13	1.68654e-13	-3.24498e-13	4.36934e-13	
2.50654e-09	1.15765e-09	-1.7266e-09	1.55495e-09	7.02853e-11	6.68509e-11	-9.62109e-12	2.92433e-11	2.23537e-13	1.68654e-13	-3.24498e-13	4.36934e-13	
2.50654e-09	1.15765e-09	-1.7266e-09	1.55495e-09	7.02853e-11	6.68509e-11	-9.62109e-12	2.92433e-11	2.23537e-13	1.68654e-13	-3.24498e-13	4.36934e-13	
2.50654e-09	1.15765e-09	-1.7266e-09	1.55495e-09	7.02853e-11	6.68509e-11	-9.62109e-12	2.92433e-11	2.23537e-13	1.68654e-13	-3.24498e-13	4.36934e-13	
2.50654e-09	1.15765e-09	-1.7266e-09	1.55495e-09	7.02853e-11	6.68509e-11	-9.62109e-12	2.92433e-11	2.23537e-13	1.68654e-13	-3.24498e-13	4.36934e-13	
2.50654e-09	1.15765e-09	-1.7266e-09	1.55495e-09	7.02853e-11	6.68509e-11	-9.62109e-12	2.92433e-11	2.23537e-13	1.68654e-13	-3.24498e-13	4.36934e-13	
2.50654e-09	1.15765e-09	-1.7266e-09	1.55495e-09	7.02853e-11	6.68509e-11	-9.62109e-12	2.92433e-11	2.23537e-13	1.68654e-13	-3.24498e-13	4.36934e-13	
2.50654e-09	1.15765e-09	-1.7266e-09	1.55495e-09	7.02853e-11	6.68509e-11	-9.62109e-12	2.92433e-11	2.23537e-13	1.68654e-13	-3.24498e-13	4.36934e-13	
2.50654e-09	1.15765e-09	-1.7266e-09	1.55495e-09	7.02853e-11	6.68509e-11	-9.62109e-12	2.92433e-11	2.23537e-13	1.68654e-13	-3.24498e-13	4.36934e-13	
2.50654e-09	1.15765e-09	-1.7266e-09	1.55495e-09	7.02853e-11	6.68509e-11	-9.62109e-12	2.92433e-11	2.23537e-13	1.68654e-13	-3.24498e-13	4.36934e-13	
2.50654e-09	1.15765e-09	-1.7266e-09	1.55495e-09	7.02853e-11	6.68509e-11	-9.62109e-12	2.92433e-11	2.23537e-13	1.68654e-13	-3.24498e-13	4.36934e-13	
2.50654e-09	1.15765e-09	-1.7266e-09	1.55495e-09	7.02853e-11	6.68509e-11	-9.62109e-12	2.92433e-11	2.23537e-13	1.68654e-13	-3.24498e-13	4.36934e-13	
2.50654e-09	1.15765e-09	-1.7266e-09	1.55495e-09	7.02853e-11	6.68509e-11	-9.62109e-12	2.92433e-11	2.23537e-13	1.68654e-13	-3.24498e-13	4.36934e-13	
2.50654e-09	1.15765e-09	-1.7266e-09	1.55495e-09	7.02853e-11	6.68509e-11	-9.62109e-12	2.92433e-11	2.23537e-13	1.68654e-13	-3.24498e-13	4.36934e-13	
2.50654e-09	1.15765e-09	-1.7266e-09	1.55495e-09	7.02853e-11	6.68509e-11	-9.62109e-12	2.92433e-11	2.23537e-13	1.68654e-13	-3.24498e-13	4.36934e-13	
2.50654e-09	1.15765e-09	-1.7266e-09	1.55495e-09	7.02853e-11	6.68509e-11	-9.62109e-12	2.92433e-11	2.23537e-13	1.68654e-13	-3.24498e-13	4.36934e-13	
2.50654e-09	1.15765e-09	-1.7266e-09	1.55495e-09	7.02853e-11	6.68509e-11	-9.62109e-12	2.92433e-11	2.23537e-13	1.68654e-13	-3.24498e-13	4.36934e-13	
2.50654e-09	1.15765e-09	-1.7266e-09	1.55495e-09	7.02853e-11	6.68509e-11	-9.62109e-12	2.92433e-11	2.23537e-13	1.68654e-13	-3.24498e-13	4.36934e-13	
2.50654e-09	1.15765e-09	-1.7266e-09	1.55495e-09	7.02853e-11	6.68509e-11	-9.62109e-12	2.92433e-11	2.23537e-13	1.68654e-13	-3.24498e-13	4.36934e-13	
2.50654e-09	1.15765e-09	-1.7266e-09	1.55495e-09	7.02853e-11	6.68509e-11	-9.62109e-12	2.92433e-11	2.23537e-13	1.68654e-13	-3.24498e-13	4.36934e-13	
2.50654e-09	1.15765e-09	-1.7266e-09	1.55495e-09	7.02853e-11	6.68509e-11	-9.62109e-12	2.92433e-11	2.23537e-13	1.68654e-13	-3.24498e-13	4.36934e-13	
2.50654e-09	1.15765e-09	-1.7266e-09	1.55495e-09	7.02853e-11	6.68509e-11	-9.62109e-12	2.92433e-11	2.23537e-13	1.68654e-13	-3.24498e-13	4.36934e-13	
2.50654e-09	1.15765e-09	-1.7266e-09	1.55495e-09	7.02853e-11	6.68509e-11	-9.62109e-12	2.92433e-11	2.23537e-13	1.68654e-13	-3.24498e-13	4.36934e-13	
2.50654e-09	1.15765e-09	-1.7266e-09	1.55495e-09	7.02853e-11	6.68509e-11	-9.62109e-12	2.92433e-11	2.23537e-13	1.68654e-13	-3.24498e-13	4.36934e-13	
2.50654e-09	1.15765e-09	-1.7266e-09	1.55495e-09	7.02853e-11	6.68509e-11	-9.62109e-12	2.92433e-11	2.23537e-13	1.68654e-13	-3.24498e-13	4.36934e-13	
2.50654e-09	1.15765e-09	-1.7266e-09	1.55495e-09	7.02853e-11	6.68509e-11	-9.62109e-12	2.92433e-11	2.23537e-13	1.68654e-13	-3.24498e-13	4.36934e-13	
2.50654e-09	1.15765e-09	-1.7266e-09	1.55495e-09	7.02853e-11	6.68509e-11	-9.62109e-12	2.92433e-11	2.23537e-13	1.68654e-13	-3.24498e-13	4.36934e-13	
2.50654e-09	1.15765e-09	-1.7266e-09	1.55495e-09	7.02853e-11	6.68509e-11	-9.62109e-12	2.92433e-11	2.23537e-13	1.68654e-13	-3.24498e-13	4.36934e-13	
2.50654e-09	1.15765e-09	-1.7266e-09	1.55495e-09	7.02853e-11	6.68509e-11	-9.62109e-12	2.92433e-11	2.23537e-13	1.68654e-13	-3.24498e-13	4.36934e-13	
2.50654e-09	1.15765e-09	-1.7266e-09	1.55495e-09	7.02853e-11	6.68509e-11	-9.62109e-12	2.92433e-11	2.23537e-13	1.68654e-13	-3.24498e-13	4.36934e-13	
2.50654e-09	1.15765e-09	-1.7266e-09	1.55495e-09	7.02853e-11	6.68509e-11	-9.62109e-12	2.92433e-11	2.23537e-13	1.68654e-13	-3.24498e-13	4.36934e-13	
2.50654e-09	1.15765e-09	-1.7266e-09	1.55495e-09	7.02853e-11	6.68509e-11	-9.62109e-12	2.92433e-11	2.23537e-13	1.68654e-13	-3.24498e-13	4.36934e-13	
2.50654e-09	1.15765e-09	-1.7266e-09	1.55495e-09	7.02853e-11	6.68509e-11	-9.62109e-12	2.92433e-11	2.23537e-13	1.68654e-13	-3.24498e-13	4.36934e-13	
2.50654e-09	1.15765e-09	-1.7266e-09	1.55495e-09	7.02853e-11	6.68509e-11	-9.62109e-12	2.92433e-11	2.23537e-13	1.68654e-13	-3.24498e-13	4.36934e-13	
2.50654e-09	1.15765e-09	-1.7266e-09	1.55495e-09	7.02853e-11	6.68509e-11	-9.62109e-12	2.92433e-11	2.23537e-13	1.68654e-13	-3.24498e-13	4.36934e-13	
2.50654e-09	1.15765e-09	-1.7266e-09	1.55495e-09	7.02853e-11	6.68509e-11	-9.62109e-12	2.92433e-11	2.23537e-13	1.68654e-13	-3.24498e-13	4.36934e-13	
2.50654e-09	1.15765e-09	-1.7266e-09	1.55495e-09	7.02853e-11	6.68509e-11	-9.62109e-12	2.92433e-11	2.23537e-13	1.68654e-13	-3.24498e-13	4.36934e-13	
2.50654e-09	1.15765e-09	-1.7266e-09	1.55495e-09	7.02853e-11	6.68509e-11	-9.62109e-12	2.92433e-11	2.23537e-13	1.68654e-13	-3.24498e-13	4.36934e-13	
2.50654e-09	1.15765e-09	-1.7266e-09	1.55495e-09	7.02853e-11	6.68509e-11	-9.62109e-12	2.92433e-11	2.23537e-13	1.68654e-13	-3.24498e-13	4.36934e-13	
2.50654e-09	1.15765e-09	-1.7266e-09	1.55495e-09	7.02853e-11	6.68509e-11	-9.62109e-12	2.92433e-11	2.23537e-13	1.68654e-13	-3.24498e-13	4.36934e-13	
2.50654e-09	1.15765e-09	-1.7266e-09	1.55495e-09	7.02853e-11	6.68509e-11	-9.62109e-12	2.92433e-11	2.23537e-13	1.68654e-13	-3.24498e-13	4.36934e-13	
2.50654e-09	1.15765e-09	-1.7266e-09	1.55495e-09	7.02853e-11	6.68509e-11	-9.62109e-12	2.92433e-11	2.23537e-13	1.68654e-13	-3.24498e-13	4.36934e-13	
2.50654e-09	1.15765e-09	-1.7266e-09	1.55495e-09	7.02853e-11	6.68509e-11	-9.62109e-12	2.92433e-11	2.23537e-13	1.68654e-13	-3.24498e-13	4.36934e-13	
2.50654e-09	1.15765e-09	-1.7266e-09	1.55495e-09	7.02853e-11	6.68509e-11	-9.62109e-12	2.92433e-11	2.23537e-13	1.68654e-13	-3.24498e-13	4.36934e-13	
2.50654e-09	1.15765e-09	-1.7266e-09	1.55495e-09	7.02853e-11	6.68509e-11	-9.62109e-12	2.92433e-11	2.23537e-13	1.68654e-13	-3.24498e-13	4.36934e-13	
2.50654e-09	1.15765e-09	-1.7266e-09	1.55495e-09	7.02853e-11	6.68509e-11	-9.62109e-12	2.92433e-11	2.23537e-13	1.68654e-13	-3.24498e-13	4.36934e-13	
2.50654e-09	1.15765e-09	-1.7266e-09	1.55495e-09	7.02853e-11	6.68509e-11	-9.62109e-12	2.92433e-11	2.23537e-13	1.68654e-13	-3.24498e-13	4.36934e-13	
2.50654e-09	1.15765e-09	-1.7266e-09	1.55495e-09	7.02853e-11	6.68509e-11	-9.62109e-12	2.92433e-11	2.23537e-13	1.68654e-13	-3.24498e-13	4.36934e-13	
2.50654e-09	1.15765e-09	-1.7266e-09	1.55495e-09	7.02853e-11	6.68509e-11	-9.62109e-12	2.92433e-11	2.23537e-13	1.68654e-13	-3.24498e-13	4.36934e-13	
2.50654e-09	1.15765e-09	-1.7266e-09	1.55495e-09	7.02853e-11	6.68509e-11	-9.62109e-12	2.92433e-11	2.23537e-13	1.68654e-13	-3.24498e-13	4.36934e-13	
2.50654e-09	1.15765e-09	-1.7266e-09	1.55495e-09	7.02853e-11	6.68509e-11	-9.62109e-12	2.92433e-11	2.23537e-13	1.68654e-13	-3.24498e-13	4.36934e-13	
2.50654e-09	1.15765e-09	-1.7266e-09	1.55495e-09	7.02853e-11	6.68509e-11	-9.62109e-12	2.92433e-11	2.23537e-13	1.68654e-13	-3.24498e-13	4.36934e-13	
2.50654e-09	1.15765e-09	-1.7266e-09	1.55495e-09	7.02853e-11	6.68509e-11	-9.62109e-12	2.92433e-11	2.23537e-13	1.68654e-13	-3.24498e-13	4.36934e-13	
2.50654e-09	1.15765e-09	-1.7266e-09	1.55495e-09	7.02853e-11	6.68509e-11	-9.62109e-12	2.92433e-11	2.23537e-13	1.68654e-13	-3.24498e-13	4.36934e-13	
2.50654e-09	1.15765e-09	-1.7266e-09	1.55495e-09	7.02853e-11	6.68509e-11	-9.62109e-12	2.92433e-11	2.23537e-13	1.68654e-13	-3.24498e-13	4.36934e-13	
2.50654e-09	1.15765e-09	-1.7266e-09	1.55495e-09	7.02853e-11	6.68509e-11	-9.62109e-12	2.92433e-11	2.23537e-13	1.68654e-13	-3.24498e-13	4.36934e-13	
2.50654e-09	1.15765e-09	-1.7266e-09	1.55495e-09	7.02853e-11	6.68509e-11	-9.62109e-12	2.92433e-11	2.23537e-13	1.68654e-13	-3.24498e-13	4.36934e-13	
2.50654e-09	1.15765e-09	-1.7266e-09	1.55495e-09	7.02853e-11	6.68509e-11	-9.62109e-12	2.92433e-11	2.23537e-13	1.68654e-13	-3.24498e-13	4.36934e-13	
2.50654e-09	1.15765e-09	-1.7266e-09	1.55495e-09	7.02853e-11	6.68509e-11	-9.62109e-12	2.92433e-11	2.23537e-13	1.68654e-13	-3.24498e-13	4.36934e-13	
2.50654e-09	1.15765e-09	-1.7266e-09	1.55495e-09	7.02853e-11	6.68509e-11	-9.62109e-12	2.92433e-11	2.23537e-13	1.68654e-13	-3.24498e-13	4.36934e-13	
2.50654e-09	1.15765e-09	-1.7266e-09	1.55495e-09	7.02853e-11	6.68509e-11	-9.62109e-12	2.92433e-11	2.23537e-13	1.68654e-13	-3.24498e-13	4.36934e-13	
2.50654e-09	1.15765e-09	-1.7266e-09	1.55495e-09	7.02853e-11	6.68509e-11	-9.62109e-12	2.92433e-11	2.23537e-13	1.68654e-13	-3.24498e-13	4.36934e-13	
2.50654e-09	1.15765e-09	-1.7266e-09	1.55495e-09	7.02853e-11	6.68509e-11	-9.62109e-12	2.92433e-11	2.23537e-13	1.68654e-13	-3.24498e-13	4.36934e-13	
2.50654e-09	1.15765e-09	-1.7266e-09	1.55495e-09	7.02853e-11	6.68509e-11	-9.62109e-12	2.92433e-11	2.23537e-13	1.68654e-13	-3.24498e-13	4.36934e-13	
2.50654e-09	1.15765e-09	-1.7266e-09	1.55495e-09	7.02853e-11	6.68509e-11	-9.62109e-12	2.92433e-11	2.23537e-13	1.68654e-13	-3.24498e-13	4.36934e-13	
2.50654e-09	1.15765e-09	-1.7266e-09	1.55495e-09	7.02853e-11	6.68509e-11	-9.62109e-12	2.92433e-11	2.23537e-13	1.68654e-13	-3.24498e-13	4.36934e-13	
2.50654e-09	1.15765e-09	-1.7266e-09	1.55495e-09	7.02853e-11	6.68509e-11	-9.62109e-12	2.92433e-11	2.23537e-13	1.68654e-13	-3.24498e-13	4.36934e-13	
2.50654e-09	1.15765e-09	-1.7266e-09	1.55495e-09	7.02853e-11	6.68509e-11	-9.62109e-12	2.92433e-11	2.23537e-13	1.68654e-13	-3.24498e-13	4.36934e-13	
2.50654e-09	1.15765e-09	-1.7266e-09	1.55495e-09	7.02853e-11	6.68509e-11	-9.62109e-12	2.92433e-11	2.23537e-13	1.68654e-13	-3.24498e-13	4.36934e-13	
2.50654e-09	1.15765e-09	-1.7266e-09	1.55495e-09	7.02853e-11	6.68509e-11	-9.62109e-12	2.92433e-11	2.23537e-13	1.68654e-13	-3.24498e-13	4.36934e-13	
2.50654e-09	1.15765e-09	-1.7266e-09	1.55495e-09	7.02853e-11	6.68509e-11	-9.62109e-12	2.92433e-11	2.23537e-13	1.68654e-13	-3.24498e-13	4.36934e-13	
2.50654e-09	1.15765e-09	-1.7266e-09	1.55495e-09	7.02853e-11	6.68509e-11	-9.62109e-12	2.92433e-11	2.23537e-13	1.68654e-13	-3.24498e-13	4.36934e-13	
2.50654e-09	1.15765e-09	-1.7266e-09	1.55495e-09	7.02853e-11	6.68509e-11	-9.62109e-12	2.92433e-11	2.23537e-13	1.68654e-13	-3.24498e-13	4.36934e-13	
2.50654e-09	1.15765e-09	-1.7266e-09	1.55495e-09	7.02853e-11	6.68509e-11	-9.62109e-12	2.92433e-11	2.23537e-13	1.68654e-13	-3.24498e-13	4.36934e-13	
2.50654e-09	1.15765e-09	-1.7266e-09	1.55495e-09	7.02853e-11	6.68509e-11	-9.62109e-12	2.92433e-11	2.23537e-13	1.68654e-13	-3.24498e-13	4.36934e-13	
2.50654e-09	1.15765e-09	-1.7266e-09	1.55495e-09	7.02853e-11	6.68509e-11	-9.62109e-12	2.92433e-11	2.23537e-13	1.68654e-13	-3.24498e-13	4.36934e-13	
2.50654e-09	1.15765e-09	-1.7266e-09	1.55495e-09	7.02853e-11	6.68509e-11	-9.62109e-12	2.92433e-11	2.23537e-13	1.68654e-13	-3.24498e-13	4.36934e-13	
2.50654e-09	1.15765e-09	-1.7266e-09	1.55495e-09	7.02853e-11	6.68509e-11	-9.62109e-12	2.92433e-11	2.23537e-13	1.68654e-13	-3.24498e-13	4.36934e-13	
2.50654e-09	1.15765e-09	-1.7266e-09	1.55495e-09	7.02853e-11	6.68509e-11	-9.62109e-12	2.92433e-11	2.23537e-13	1.68654e-13	-3.24498e-13	4.36934e-13	
2.50654e-09	1.15765e-09	-1.7266e-09	1.55495e-09	7.02853e-11	6.68509e-11	-9.62109e-12	2.92433e-11	2.23537e-13	1.68654e-13	-3.24498e-13	4.36934e-13	
2.50654e-09	1.15765e-09	-1.7266e-09	1.55495e-09	7.02853e-11	6.68509e-11	-9.62109e-12	2.92433e-11	2.23537e-13	1.68654e-13	-3.24498e-13	4.36934e-13	
2.50654e-09	1.15765e-09	-1.7266e-09	1.55495e-09	7.02853e-11	6.68509e-11	-9.62109e-12	2.92433e-11	2.23537e-13	1.68654e-13	-3.24498e-13	4.36934e-13	
2.50654e-09	1.15765e-09	-1.7266e-09	1.55495e-09	7.02853e-11	6.68509e-11	-9.62109e-12	2.92433e-11	2.23537e-13	1.68654e-13	-3.24498e-13	4.36934e-13	
2.50654e-09	1.15765e-09	-1.7266e-09	1.55495e-09	7.02853e-11	6.68509e-11	-9.62109e-12	2.92433e-11	2.23537e-13	1.68654e-13	-3.24498e-13	4.36934e-13	
2.50654e-09	1.15765e-09	-1.7266e-09	1.55495e-09	7.02853e-11	6.68509e-11	-9.62109e-12	2.92433e-11	2.23537e-13	1.68654e-13	-3.24498e-13	4.36934e-13	
2.50654e-09	1.15765e-09	-1.7266e-09	1.55495e-09	7.02853e-11	6.68509e-11	-9.62109e-12	2.92433e-11	2.23537e-13	1.68654e-13	-3.24498e-13	4.36934e-13	
2.50654e-09	1.15765e-09	-1.7266e-09	1.55495e-09	7.02853e-11	6.68509e-11	-9.62109e-12	2.92433e-11	2.23537e-13	1.68654e-13	-3.24498e-13	4.36934e-13	
2.50654e-09	1.15765e-09	-1.7266e-09	1.55495e-09	7.02853e-11	6.68509e-11	-9.62109e-12	2.92433e-11	2.23537e-13	1.68654e-13	-3.24498e-13	4.36934e-13	
2.50654e-09	1.15765e-09	-1.7266e-09	1.55495e-09	7.02853e-11	6.68509e-11	-9.62109e-12	2.92433e-11	2.23537e-13	1.68654e-13	-3.24498e-13	4.36934e-13	
2.50654e-09	1.15765e-09	-1.7266e-09	1.55495e-09	7.02853e-11	6.68509e-11	-9.62109e-12	2.92433e-11	2.23537e-13	1.68654e-13	-3.24498e-13	4.36934e-13	
2.50654e-09	1.15765e-09	-1.7266e-09	1.55495e-09	7.02853e-11	6.68509e-11	-9.62109e-12	2.92433e-11	2.23537e-13	1.68654e-13	-3.24498e-13	4.36934e-13	
2.50654e-09	1.15765e-09	-1.7266e-09	1.55495e-09	7.02853e-11	6.68509e-11	-9.62109e-12	2.92433e-11	2.23537e-13	1.68654e-13	-3.24498e-13	4.36934e-13	
2.50654e-09	1.15765e-09	-1.7266e-09	1.55495e-09	7.02853e-11	6.68509e-11	-9.62109e-12	2.92433e-11	2.23537e-13	1.68654e-13	-3.24498e-13	4.36934e-13	
2.50654e-09	1.15765e-09	-1.7266e-09	1.55495e-09	7.02853e-11	6.68509e-11	-9.62109e-12	2.92433e-11	2.23537e-13	1.68654e-13	-3.24498e-13	4.36934e-13	
2.50654e-09	1.15765e-09	-1.7266e-09	1.55495e-09	7.02853e-11	6.68509e-11	-9.62109e-12	2.92433e-11	2.23537e-13	1.68654e-13	-3.24498e-13	4.36934e-13	
2.50654e-09	1.15765e-09	-1.7266e-09	1.55495e-09	7.02853e-11	6.68509e-11	-9.62109e-12	2.92433e-11	2.23537e-13	1.68654e-13	-3.24498e-13	4.36934e-13	
2.50654e-09	1.15765e-09	-1.7266e-09	1.55495e-09	7.02853e-11	6.68509e-11	-9.62109e-12	2.92433e-11	2.23537e-13	1.68654e-13	-3.24498e-13	4.36934e-13	
2.50654e-09	1.15765e-09	-1.7266e-09	1.55495e-09	7.02853e-11	6.68509e-11	-9.62109e-12	2.92433e-11	2.23537e-13	1.68654e-13	-3.24498e-13	4.36934e-13	
2.50654e-09	1.15765e-09	-1.7266e-09	1.55495e-09	7.02853e-11	6.68509e-11	-9.62109e-12	2.92433e-11	2.23537e-13	1.68654e-13	-3.24498e-13	4.36934e-13	
2.50654e-09	1.15765e-09	-1.7266e-09	1.55495e-09	7.02853e-11	6.68509e-11	-9.62109e-12	2.92433e-11	2.23537e-13	1.68654e-13	-3.24498e-13	4.36934e-13	
2.50654e-09	1.15765e-09	-1.7266e-09	1.55495e-09	7.02853e-11	6.68509e-11	-9.62109e-12	2.92433e-11	2.23537e-13	1.68654e-13	-3.24498e-13	4.36934e-13	
2.50654e-09	1.15765e-09	-1.7266e-09	1.55495e-09	7.02853e-11	6.68509e-11	-9.62109e-12	2.92433e-11	2.23537e-13	1.68654e-13	-3.24498e-13	4.36934e-13	
2.50654e-09	1.15765e-09	-1.7266e-09	1.55495e-09	7.02853e-11	6.68509e-11	-9.62109e-12	2.92433e-11	2.23537e-13	1.68654e-13	-3.24498e-13	4.36934e-13	
2.50654e-09	1.15765e-09	-1.7266e-09	1.55495e-09	7.02853e-11	6.68509e-11	-9.62109e-12	2.92433e-11	2.23537e-13	1.68654e-13	-3.24498e-13	4.36934e-13	
2.50654e-09	1.15765e-09	-1.7266e-09	1.55495e-09	7.02853e-11	6.68509e-11	-9.62109e-12	2.92433e-11	2.23537e-13	1.68654e-13	-3.24498e-13	4.36934e-13	
2.50654e-09	1.15765e-09	-1.7266e-09	1.55495e-09	7.02853e-11	6.68509e-11	-9.62109e-12	2.92433e-11	2.23537e-13	1.68654e-13	-3.24498e-13	4.36934e-13	
2.50654e-09	1.15765e-09	-1.7266e-09	1.55495e-09	7.02853e-11	6.68509e-11	-9.62109e-12	2.92433e-11	2.23537e-13	1.68654e-13	-3.24498e-13	4.36934e-13	
2.50654e-09	1.15765e-09	-1.7266e-09	1.55495e-09	7.02853e-11	6.68509e-11	-9.62109e-12	2.92433e-11	2.23537e-13	1.68654e-13	-3.24498e-13	4.36934e-13	
2.50654e-09	1.15765e-09	-1.7266e-09	1.55495e-09	7.02853e-11	6.68509e-11	-9.62109e-12	2.92433e-11	2.23537e-13	1.68654e-13	-3.24498e-13	4.36934e-13	
2.50654e-09	1.15765e-09	-1.7266e-09	1.55495e-09	7.02853e-11	6.68509e-11	-9.62109e-12	2.92433e-11	2.23537e-13	1.68654e-13	-3.24498e-13	4.36934e-13	
2.50654e-09	1.15765e-09	-1.7266e-09	1.55495e-09	7.02853e-11	6.68509e-11	-9.62109e-12	2.92433e-11	2.23537e-13	1.68654e-13	-3.24498e-13	4.36934e-13	
2.50654e-09	1.15765e-09	-1.7266e-09	1.55495e-09	7.02853e-11	6.68509e-11	-9.62109e-12	2.92433e-11	2.23537e-13	1.68654e-13	-3.24498e-13	4.36934e-13	
2.50654e-09	1.15765e-09	-1.7266e-09	1.55495e-09	7.02853e-11	6.68509e-11	-9.62109e-12	2.92433e-11	2.23537e-13	1.68654e-13	-3.24498e-13	4.36934e-13	
2.50654e-09	1.15765e-09	-1.7266e-09	1.55495e-09	7.02853e-11	6.68509e-11	-9.62109e-12	2.92433e-11	2.23537e-13	1.68654e-13	-3.24498e-13	4.36934e-13	
2.50654e-09	1.15765e-09	-1.7266e-09	1.55495e-09	7.02853e-11	6.68509e-11	-9.62109e-12	2.92433e-11	2.23537e-13	1.68654e-13	-3.24498e-13	4.36934e-13	
2.50654e-09	1.15765e-09	-1.7266e-09	1.55495e-09	7.02853e-11	6.68509e-11	-9.62109e-12	2.92433e-11	2.23537e-13	1.68654e-13	-3.24498e-13	4.36934e-13	
2.50654e-09	1.15765e-09	-1.7266e-09	1.55495e-09	7.02853e-11	6.68509e-11	-9.62109e-12	2.92433e-11	2.23537e-13	1.68654e-13	-3.24498e-13	4.36934e-13	
2.50654e-09	1.15765e-09	-1.7266e-09	1.55495e-09	7.02853e-11	6.68509e-11	-9.62109e-12	2.92433e-11	2.23537e-13	1.68654e-13	-3.24498e-13	4.36934e-13	
2.50654e-09	1.15765e-09	-1.7266e-09	1.55495e-09	7.02853e-11	6.68509e-11	-9.62109e-12	2.92433e-11	2.23537e-13	1.68654e-13	-3.24498e-13	4.36934e-13	
2.50654e-09	1.15765e-09	-1.7266e-09	1.55495e-09	7.02853e-11	6.68509e-11	-9.62109e-12	2.92433e-11	2.23537e-13	1.68654e-13	-3.24498e-13	4.36934e-13	
2.50654e-09	1.15765e-09	-1.7266e-09	1.55495e-09	7.02853e-11	6.68509e-11	-9.62109e-12	2.92433e-11	2.23537e-13	1.68654e-13	-3.24498e-13	4.36934e-13	
2.50654e-09	1.15765e-09	-1.7266e-09	1.55495e-09	7.02853e-11	6.68509e-11	-9.62109e-12	2.92433e-11	2.23537e-13	1.68654e-13	-3.24498e-13	4.36934e-13	
2.50654e-09	1.15765e-09	-1.7266e-09	1.55495e-09	7.02853e-11	6.68509e-11	-9.62109e-12	2.92433e-11	2.23537e-13	1.68654e-13	-3.24498e-13	4.36934e-13	
2.50654e-09	1.15765e-09	-1.7266e-09	1.55495e-09	7.02853e-11	6.68509e-11	-9.62109e-12	2.92433e-11	2.23537e-13	1.68654e-13	-3.24498e-13	4.36934e-13	
2.50654e-09	1.15765e-09	-1.7266e-09	1.55495e-09	7.02853e-11	6.68509e-11	-9.62109e-12	2.92433e-11	2.23537e-13	1.68654e-13	-3.24498e-13	4.36934e-13	
2.50654e-09	1.15765e-09	-1.7266e-09	1.55495e-09	7.02853e-11	6.68509e-11	-9.62109e-12	2.92433e-11	2.23537e-13	1.68654e-13	-3.24498e-13	4.36934e-13	
2.50654e-09	1.15765e-09	-1.7266e-09	1.55495e-09	7.02853e-11	6.68509e-11	-9.62109e-12	2.92433e-11	2.23537e-13	1.68654e-13	-3.24498e-13	4.36934e-13	
2.50654e-09	1.15765e-09	-1.7266e-09	1.55495e-09	7.02853e-11	6.68509e-11	-9.62109e-12	2.92433e-11	2.23537e-13	1.68654e-13	-3.24498e-13	4.36934e-13	
2.50654e-09	1.15765e-09	-1.7266e-09	1.55495e-09	7.02853e-11	6.68509e-11	-9.62109e-12	2.92433e-11	2.23537e-13	1.68654e-13	-3.24498e-13	4.36934e-13	
2.50654e-09	1.15765e-09	-1.7266e-09	1.55495e-09	7.02853e-11	6.68509e-11	-9.62109e-12	2.92433e-11	2.23537e-13	1.68654e-13	-3.24498e-13	4.36934e-13	
2.50654e-09	1.15765e-09	-1.7266e-09	1.55495e-09	7.02853e-11	6.68509e-11	-9.62109e-12	2.92433e-11	2.23537e-13	1.68654e-13	-3.24498e-13	4.36934e-13	
2.50654e-09	1.15765e-09	-1.7266e-09	1.55495e-09	7.02853e-11	6.68509e-11	-9.62109e-12	2.92433e-11	2.23537e-13	1.68654e-13	-3.24498e-13	4.36934e-13	
2.50654e-09	1.15765e-09	-1.7266e-09	1.55495e-09	7.02853e-11	6.68509e-11	-9.62109e-12	2.92433e-11	2.23537e-13	1.68654e-13	-3.24498e-13	4.36934e-13	
2.50654e-09	1.15765e-09	-1.7266e-09	1.55495e-09	7.02853e-11	6.68509e-11	-9.62109e-12	2.92433e-11	2.23537e-13	1.68654e-13	-3.24498e-13	4.36934e-13	
2.50654e-09	1.15765e-09	-1.7266e-09	1.55495e-09	7.02853e-11	6.68509e-11	-9.62109e-12	2.92433e-11	2.23537e-13	1.68654e-13	-3.24498e-13	4.36934e-13	
2.50654e-09	1.15765e-09	-1.7266e-09	1.55495e-09	7.02853e-11	6.68509e-11	-9.62109e-12	2.92433e-11	2.23537e-13	1.68654e-13	-3.24498e-13	4.36934e-13	
2.50654e-09	1.15765e-09	-1.7266e-09	1.55495e-09	7.02853e-11	6.68509e-11	-9.62109e-12	2.92433e-11	2.23537e-13	1.68654e-13	-3.24498e-13	4.36934e-13	
2.50654e-09	1.15765e-09	-1.7266e-09	1.55495e-09	7.02853e-11	6.68509e-11	-9.62109e-12	2.92433e-11	2.23537e-13	1.68654e-13	-3.24498e-13	4.36934e-13	
2.50654e-09	1.15765e-09	-1.7266e-09	1.55495e-09	7.02853e-11	6.68509e-11	-9.62109e-12	2.92433e-11	2.23537e-13	1.68654e-13	-3.24498e-13	4.36934e-13	
2.50654e-09	1.15765e-09	-1.7266e-09	1.55495e-09	7.02853e-11	6.68509e-11	-9.62109e-12	2.92433e-11	2.23537e-13	1.68654e-13	-3.24498e-13	4.36934e-13	
2.50654e-09	1.15765e-09	-1.7266e-09	1.55495e-09	7.02853e-11	6.68509e-11	-9.62109e-12	2.92433e-11	2.23537e-13	1.68654e-13	-3.24498e-13	4.36934e-13	
2.50654e-09	1.15765e-09	-1.7266e-09	1.55495e-09	7.02853e-11	6.68509e-11	-9.62109e-12	2.92433e-11	2.23537e-13	1.68654e-13	-3.24498e-13	4.36934e-13	
2.50654e-09	1.15765e-09	-1.7266e-09	1.55495e-09	7.02853e-11	6.68509e-11	-9.62109e-12	2.92433e-11	2.23537e-13	1.68654e-13	-3.24498e-13	4.36934e-13	
2.50654e-09	1.15765e-09	-1.7266e-09	1.55495e-09	7.02853e-11	6.68509e-11	-9.62109e-12	2.92433e-11	2.23537e-13	1.68654e-13	-3.24498e-13	4.36934e-13	
2.50654e-09	1.15765e-09	-1.7266e-09	1.55495e-09	7.02853e-11	6.68509e-11	-9.62109e-12	2.92433e-11	2.23537e-13	1.68654e-13	-3.24498e-13	4.36934e-13	
2.50654e-09	1.15765e-09	-1.7266e-09	1.55495e-09	7.02853e-11	6.68509e-11	-9.62109e-12	2.92433e-11	2.23537e-13	1.68654e-13	-3.24498e-13	4.36934e-13	
2.50654e-09	1.15765e-09	-1.7266e-09	1.55495e-09	7.02853e-11	6.68509e-11	-9.62109e-12	2.92433e-11	2.23537e-13	1.68654e-13	-3.24498e-13	4.36934e-13	
2.50654e-09	1.15765e-09	-1.7266e-09	1.55495e-09	7.02853e-11	6.68509e-11	-9.62109e-12	2.92433e-11	2.23537e-13	1.68654e-13	-3.24498e-13	4.36934e-13	
2.50654e-09	1.15765e-09	-1.7266e-09	1.55495e-09	7.02853e-11	6.68509e-11	-9.62109e-12	2.92433e-11	2.23537e-13	1.68654e-13	-3.24498e-13	4.36934e-13	
2.50654e-09	1.15765e-09	-1.7266e-09	1.55495e-09	7.02853e-11	6.68509e-11	-9.62109e-12	2.92433e-11	2.23537e-13	1.68654e-13	-3.24498e-13	4.36934e-13	
2.50654e-09	1.15765e-09	-1.7266e-09	1.55495e-09	7.02853e-11	6.68509e-11	-9.62109e-12	2.92433e-11	2.23537e-13	1.68654e-13	-3.24498e-13	4.36934e-13	
2.50654e-09	1.15765e-09	-1.7266e-09	1.55495e-09	7.02853e-11	6.68509e-11	-9.62109e-12	2.92433e-11	2.23537e-13	1.68654e-13	-3.24498e-13	4.36934e-13	
2.50654e-09	1.15765e-09	-1.7266e-09	1.55495e-09	7.02853e-11	6.68509e-11	-9.62109e-12	2.92433e-11	2.23537e-13	1.68654e-13	-3.24498e-13	4.36934e-13	
2.50654e-09	1.15765e-09	-1.7266e-09	1.55495e-09	7.02853e-11	6.68509e-11	-9.62109e-12	2.92433e-11	2.23537e-13	1.68654e-13	-3.24498e-13	4.36934e-13	
2.50654e-09	1.15765e-09	-1.7266e-09	1.55495e-09	7.02853e-11	6.68509e-11	-9.62109e-12	2.92433e-11	2.23537e-13	1.68654e-13	-3.24498e-13	4.36934e-13	
2.50654e-09	1.15765e-09	-1.7266e-09	1.55495e-09	7.02853e-11	6.68509e-11	-9.62109e-12	2.92433e-11	2.23537e-13	1.68654e-13	-3.24498e-13	4.36934e-13	
2.50654e-09	1.15765e-09	-1.7266e-09	1.55495e-09	7.02853e-11	6.68509e-11	-9.62109e-12	2.92433e-11	2.23537e-13	1.68654e-13	-3.24498e-13	4.36934e-13	
2.50654e-09	1.15765e-09	-1.7266e-09	1.55495e-09	7.02853e-11	6.68509e-11	-9.62109e-12	2.92433e-11	2.23537e-13	1.68654e-13	-3.24498e-13	4.36934e-13	
2.50654e-09	1.15765e-09	-1.7266e-09	1.55495e-09	7.02853e-11	6.68509e-11	-9.62109e-12	2.92433e-11	2.23537e-13	1.68654e-13	-3.24498e-13	4.36934e-13	
2.50654e-09	1.15765e-09	-1.7266e-09	1.55495e-09	7.02853e-11	6.68509e-11	-9.62109e-12	2.92433e-11	2.23537e-13	1.68654e-13	-3.24498e-13	4.36934e-13	
2.50654e-09	1.15765e-09	-1.7266e-09	1.55495e-09	7.02853e-11	6.68509e-11	-9.62109e-12	2.92433e-11	2.23537e-13	1.68654e-13	-3.24498e-13	4.36934e-13	
2.50654e-09	1.15765e-09	-1.7266e-09	1.55495e-09	7.02853e-11	6.68509e-11	-9.62109e-12	2.92433e-11	2.23537e-13	1.68654e-13	-3.24498e-13	4.36934e-13	
2.50654e-09	1.15765e-09	-1.7266e-09	1.55495e-09	7.02853e-11	6.68509e-11	-9.62109e-12	2.92433e-11	2.23537e-13	1.68654e-13	-3.24498e-13	4.36934e-13	
2.50654e-09	1.15765e-09	-1.7266e-09	1.55495e-09	7.02853e-11	6.68509e-11	-9.62109e-12	2.92433e-11	2.23537e-13	1.68654e-13	-3.24498e-13	4.36934e-13	
2.50654e-09	1.15765e-09	-1.7266e-09	1.55495e-09	7.02853e-11	6.68509e-11	-9.62109e-12	2.92433e-11	2.23537e-13	1.68654e-13	-3.24498e-13	4.36934e-13	
2.50654e-09	1.15765e-09	-1.7266e-09	1.55495e-09	7.02853e-11	6.68509e-11	-9.62109e-12	2.92433e-11	2.23537e-13	1.68654e-13	-3.24498e-13	4.36934e-13	
2.50654e-09	1.15765e-09	-1.7266e-09	1.55495e-09	7.02853e-11	6.68509e-11	-9.62109e-12	2.92433e-11	2.23537e-13	1.68654e-13	-3.24498e-13	4.36934e-13	
2.50654e-09	1.15765e-09	-1.7266e-09	1.55495e-09	7.02853e-11	6.68509e-11	-9.62109e-12	2.92433e-11	2.23537e-13	1.68654e-13	-3.24498e-13	4.36934e-13	
2.50654e-09	1.15765e-09	-1.7266e-09	1.55495e-09	7.02853e-11	6.68509e-11	-9.62109e-12	2.92433e-11	2.23537e-13	1.68654e-13	-3.24498e-13	4.36934e-13	
2.50654e-09	1.15765e-09	-1.7266e-09	1.55495e-09	7.02853e-11	6.68509e-11	-9.62109e-12	2.92433e-11	2.23537e-13	1.68654e-13	-3.24498e-13	4.36934e-13	
2.50654e-09	1.15765e-09	-1.7266e-09	1.55495e-09	7.02853e-11	6.68509e-11	-9.62109e-12	2.92433e-11	2.23537e-13	1.68654e-13	-3.24498e-13	4.36934e-13	
2.50654e-09	1.15765e-09	-1.7266e-09	1.55495e-09	7.02853e-11	6.68509e-11	-9.62109e-12	2.92433e-11	2.23537e-13	1.68654e-13	-3.24498e-13	4.36934e-13	
2.50654e-09	1.15765e-09	-1.7266e-09	1.55495e-09	7.02853e-11	6.68509e-11	-9.62109e-12	2.92433e-11	2.23537e-13	1.68654e-13	-3.24498e-13	4.36934e-13	
2.50654e-09	1.15765e-09	-1.7266e-09	1.55495e-09	7.02853e-11	6.68509e-11	-9.62109e-12	2.92433e-11	2.23537e-13	1.68654e-13	-3.24498e-13	4.36934e-13	
2.50654e-09	1.15765e-09	-1.7266e-09	1.55495e-09	7.02853e-11	6.68509e-11	-9.62109e-12	2.92433e-11	2.23537e-13	1.68654e-13	-3.24498e-13	4.36934e-13	
2.50654e-09	1.15765e-09	-1.7266e-09	1.55495e-09	7.02853e-11	6.68509e-11	-9.62109e-12	2.92433e-11	2.23537e-13	1.68654e-13	-3.24498e-13	4.36934e-13	
2.50654e-09	1.15765e-09	-1.7266e-09	1.55495e-09	7.02853e-11	6.68509e-11	-9.62109e-12	2.92433e-11	2.23537e-13	1.68654e-13	-3.24498e-13	4.36934e-13	
2.50654e-09	1.15765e-09	-1.7266e-09	1.55495e-09	7.02853e-11	6.68509e-11	-9.62109e-12	2.92433e-11	2.23537e-13	1.68654e-13	-3.24498e-13	4.36934e-13	
2.50654e-09	1.15765e-09	-1.7266e-09	1.55495e-09	7.02853e-11	6.68509e-11	-9.62109e-12	2.92433e-11	2.23537e-13	1.68654e-13	-3.24498e-13	4.36934e-13	
2.50654e-09	1.15765e-09	-1.7266e-09	1.55495e-09	7.02853e-11	6.68509e-11	-9.62109e-12	2.92433e-11	2.23537e-13	1.68654e-13	-3.24498e-13	4.36934e-13	
2.50654e-09	1.15765e-09	-1.7266e-09	1.55495e-09	7.02853e-11	6.68509e-11	-9.62109e-12	2.92433e-11	2.23537e-13	1.68654e-13	-3.24498e-13	4.36934e-13	
2.50654e-09	1.15765e-09	-1.7266e-09	1.55495e-09	7.02853e-11	6.68509e-11	-9.62109e-12	2.92433e-11	2.23537e-13	1.68654e-13	-3.24498e-13	4.36934e-13	
2.50654e-09	1.15765e-09	-1.7266e-09	1.55495e-09	7.02853e-11	6.68509e-11	-9.62109e-12	2.92433e-11	2.23537e-13	1.68654e-13	-3.24498e-13	4.36934e-13	
2.50654e-09	1.15765e-09	-1.7266e-09	1.55495e-09	7.02853e-11	6.68509e-11	-9.62109e-12	2.92433e-11	2.23537e-13	1.68654e-13	-3.24498e-13	4.36934e-13	
2.50654e-09	1.15765e-09	-1.7266e-09	1.55495e-09	7.02853e-11	6.68509e-11	-9.62109e-12	2.92433e-11	2.23537e-13	1.68654e-13	-3.24498e-13	4.36934e-13	
2.50654e-09	1.15765e-09	-1.7266e-09	1.55495e-09	7.02853e-11	6.68509e-11	-9.62109e-12	2.92433e-11	2.23537e-13	1.68654e-13	-3.24498e-13	4.36934e-13	
2.50654e-09	1.15765e-09	-1.7266e-09	1.55495e-09	7.02853e-11	6.68509e-11	-9.62109e-12	2.92433e-11	2.23537e-13	1.68654e-13	-3.24498e-13	4.36934e-13	
2.50654e-09	1.15765e-09	-1.7266e-09	1.55495e-09	7.02853e-11	6.68509e-11	-9.62109e-12	2.92433e-11	2.23537e-13	1.68654e-13	-3.24498e-13	4.36934e-13	
2.50654e-09	1.15765e-09	-1.7266e-09	1.55495e-09	7.02853e-11	6.68509e-11	-9.62109e-12	2.92433e-11	2.23537e-13	1.68654e-13	-3.24498e-13	4.36934e-13	
2.50654e-09	1.15765e-09	-1.7266e-09	1.55495e-09	7.02853e-11	6.68509e-11	-9.62109e-12	2.92433e-11	2.23537e-13	1.68654e-13	-3.24498e-13	4.36934e-13	
2.50654e-09	1.15765e-09	-1.7266e-09	1.55495e-09	7.02853e-11	6.68509e-11	-9.62109e-12	2.92433e-11	2.23537e-13	1.68654e-13	-3.24498e-13	4.36934e-13	
2.50654e-09	1.15765e-09	-1.7266e-09	1.55495e-09	7.02853e-11	6.68509e-11	-9.62109e-12	2.92433e-11	2.23537e-13	1.68654e-13	-3.24498e-13	4.36934e-13	
2.50654e-09	1.15765e-09	-1.7266e-09	1.55495e-09	7.02853e-11	6.68509e-11	-9.62109e-12	2.92433e-11	2.23537e-13	1.68654e-13	-3.24498e-13	4.36934e-13	
2.50654e-09	1.15765e-09	-1.7266e-09	1.55495e-09	7.02853e-11	6.68509e-11	-9.62109e-12	2.92433e-11	2.23537e-13	1.68654e-13	-3.24498e-13	4.36934e-13	
2.50654e-09	1.15765e-09	-1.7266e-09	1.55495e-09	7.02853e-11	6.68509e-11	-9.62109e-12	2.92433e-11	2.23537e-13	1.68654e-13	-3.24498e-13	4.36934e-13	
2.50654e-09	1.15765e-09	-1.7266e-09	1.55495e-09	7.02853e-11	6.68509e-11	-9.62109e-12	2.92433e-11	2.23537e-13	1.68654e-13	-3.24498e-13	4.36934e-13	
2.50654e-09	1.15765e-09	-1.7266e-09	1.55495e-09	7.02853e-11	6.68509e-11	-9.62109e-12	2.92433e-11	2.23537e-13	1.68654e-13	-3.24498e-13	4.36934e-13	
2.50654e-09	1.15765e-09	-1.7266e-09	1.55495e-09	7.02853e-11	6.68509e-11	-9.62109e-12	2.92433e-11	2.23537e-13	1.68654e-13	-3.24498e-13	4.36934e-13	
2.50654e-09	1.15765e-09	-1.7266e-09	1.55495e-09	7.02853e-11	6.68509e-11	-9.62109e-12	2.92433e-11	2.23537e-13	1.68654e-13	-3.24498e-13	4.36934e-13	
2.50654e-09	1.15765e-09	-1.7266e-09	1.55495e-09	7.02853e-11	6.68509e-11	-9.62109e-12	2.92433e-11	2.23537e-13	1.68654e-13	-3.24498e-13	4.36934e-13	
2.50654e-09	1.15765e-09	-1.7266e-09	1.55495e-09	7.02853e-11	6.68509e-11	-9.62109e-12	2.92433e-11	2.23537e-13	1.68654e-13	-3.24498e-13	4.36934e-13	
2.50654e-09	1.15765e-09	-1.7266e-09	1.55495e-09	7.02853e-11	6.68509e-11	-9.62109e-12	2.92433e-11	2.23537e-13	1.68654e-13	-3.24498e-13	4.36934e-13	
2.50654e-09	1.15765e-09	-1.7266e-09	1.55495e-09	7.02853e-11	6.68509e-11	-9.62109e-12	2.92433e-11	2.23537e-13	1.68654e-13	-3.24498e-13	4.36934e-13	
2.50654e-09	1.15765e-09	-1.7266e-09	1.55495e-09	7.02853e-11	6.68509e-11	-9.62109e-12	2.92433e-11	2.23537e-13	1.68654e-13	-3.24498e-13	4.36934e-13	
2.50654e-09	1.15765e-09	-1.7266e-09	1.55495e-09	7.02853e-11	6.68509e-11	-9.62109e-12	2.92433e-11	2.23537e-13	1.68654e-13	-3.24498e-13	4.36934e-13	
2.50654e-09	1.15765e-09	-1.7266e-09	1.55495e-09	7.02853e-11	6.68509e-11	-9.62109e-12	2.92433e-11	2.23537e-13	1.68654e-13	-3.24498e-13	4.36934e-13	
2.50654e-09	1.15765e-09	-1.7266e-09	1.55495e-09	7.02853e-11	6.68509e-11	-9.62109e-12	2.92433e-11	2.23537e-13	1.68654e-13	-3.24498e-13	4.36934e-13	
2.50654e-09	1.15765e-09	-1.7266e-09	1.55495e-09	7.02853e-11	6.68509e-11	-9.62109e-12	2.92433e-11	2.23537e-13	1.68654e-13	-3.24498e-13	4.36934e-13	
2.50654e-09	1.15765e-09	-1.7266e-09	1.55495e-09	7.02853e-11	6.68509e-11	-9.62109e-12	2.92433e-11	2.23537e-13	1.68654e-13	-3.24498e-13	4.36934e-13	
2.50654e-09	1.15765e-09	-1.7266e-09	1.55495e-09	7.02853e-11	6.68509e-11	-9.62109e-12	2.92433e-11	2.23537e-13	1.68654e-13	-3.24498e-13	4.36934e-13	
2.50654e-09	1.15765e-09	-1.7266e-09	1.55495e-09	7.02853e-11	6.68509e-11	-9.62109e-12	2.92433e-11	2.23537e-13	1.68654e-13	-3.24498e-13	4.36934e-13	
2.50654e-09	1.15765e-09	-1.7266e-09	1.55495e-09	7.02853e-11	6.68509e-11	-9.62109e-12	2.92433e-11	2.23537e-13	1.68654e-13	-3.24498e-13	4.36934e-13	
2.50654e-09	1.15765e-09	-1.7266e-09	1.55495e-09	7.02853e-11	6.68509e-11	-9.62109e-12	2.92433e-11	2.23537e-13	1.68654e-13	-3.24498e-13	4.36934e-13	
2.50654e-09	1.15765e-09	-1.7266e-09	1.55495e-09	7.02853e-11	6.68509e-11	-9.62109e-12	2.92433e-11	2.23537e-13	1.68654e-13	-3.24498e-13	4.36934e-13	
2.50654e-09	1.15765e-09	-1.7266e-09	1.55495e-09	7.02853e-11	6.68509e-11	-9.62109e-12	2.92433e-11	2.23537e-13	1.68654e-13	-3.24498e-13	4.36934e-13	
2.50654e-09	1.15765e-09	-1.7266e-09	1.55495e-09	7.02853e-11	6.68509e-11	-9.62109e-12	2.92433e-11	2.23537e-13	1.68654e-13	-3.24498e-13	4.36934e-13	
2.50654e-09	1.15765e-09	-1.7266e-09	1.55495e-09	7.02853e-11	6.68509e-11	-9.62109e-12	2.92433e-11	2.23537e-13	1.68654e-13	-3.24498e-13	4.36934e-13	
2.50654e-09	1.15765e-09	-1.7266e-09	1.55495e-09	7.02853e-11	6.68509e-11	-9.62109e-12	2.92433e-11	2.23537e-13	1.68654e-13	-3.24498e-13	4.36934e-13	
2.50654e-09	1.15765e-09	-1.7266e-09	1.55495e-09	7.02853e-11	6.68509e-11	-9.62109e-12	2.92433e-11	2.23537e-13	1.68654e-13	-3.24498e-13	4.36934e-13	
2.50654e-09	1.15765e-09	-1.7266e-09	1.55495e-09	7.02853e-11	6.68509e-11	-9.62109e-12	2.92433e-11	2.23537e-13	1.68654e-13	-3.24498e-13	4.36934e-13	
2.50654e-09	1.15765e-09	-1.7266e-09	1.55495e-09	7.02853e-11	6.68509e-11	-9.62109e-12	2.92433e-11	2.23537e-13	1.68654e-13	-3.24498e-13	4.36934e-13	
2.50654e-09	1.15765e-09	-1.7266e-09	1.55495e-09	7.02853e-11	6.68509e-11	-9.62109e-12	2.92433e-11	2.23537e-13	1.68654e-13	-3.24498e-13	4.36934e-13	
2.50654e-09	1.15765e-09	-1.7266e-09	1.55495e-09	7.02853e-11	6.68509e-11	-9.62109e-12	2.92433e-11	2.23537e-13	1.68654e-13	-3.24498e-13	4.36934e-13	
2.50654e-09	1.15765e-09	-1.7266e-09	1.55495e-09	7.02853e-11	6.68509e-11	-9.62109e-12	2.92433e-11	2.23537e-13	1.68654e-13	-3.24498e-13	4.36934e-13	
2.50654e-09	1.15765e-09	-1.7266e-09	1.55495e-09	7.02853e-11	6.68509e-11	-9.62109e-12	2.92433e-11	2.23537e-13	1.68654e-13	-3.24498e-13	4.36934e-13	
2.50654e-09	1.15765e-09	-1.7266e-09	1.55495e-09	7.02853e-11	6.68509e-11	-9.62109e-12	2.92433e-11	2.23537e-13	1.68654e-13	-3.24498e-13	4.36934e-13	
2.50654e-09	1.15765e-09	-1.7266e-09	1.55495e-09	7.02853e-11	6.68509e-11	-9.62109e-12	2.92433e-11	2.23537e-13	1.68654e-13	-3.24498e-13	4.36934e-13	
2.50654e-09	1.15765e-09	-1.7266e-09	1.55495e-09	7.02853e-11	6.68509e-11	-9.62109e-12	2.92433e-11	2.23537e-13	1.68654e-13	-3.24498e-13	4.36934e-13	
2.50654e-09	1.15765e-09	-1.7266e-09	1.55495e-09	7.02853e-11	6.68509e-11	-9.62109e-12	2.92433e-11	2.23537e-13	1.68654e-13	-3.24498e-13	4.36934e-13	
2.50654e-09	1.15765e-09	-1.7266e-09	1.55495e-09	7.02853e-11	6.68509e-11	-9.62109e-12	2.92433e-11	2.23537e-13	1.68654e-13	-3.24498e-13	4.36934e-13	
2.50654e-09	1.15765e-09	-1.7266e-09	1.55495e-09	7.02853e-11	6.68509e-11	-9.62109e-12	2.92433e-11	2.23537e-13	1.68654e-13	-3.24498e-13	4.36934e-13	
2.50654e-09	1.15765e-09	-1.7266e-09	1.55495e-09	7.02853e-11	6.68509e-11	-9.62109e-12	2.92433e-11	2.23537e-13	1.68654e-13	-3.24498e-13	4.36934e-13	
2.50654e-09	1.15765e-09	-1.7266e-09	1.55495e-09	7.02853e-11	6.68509e-11	-9.62109e-12	2.92433e-11	2.23537e-13	1.68654e-13	-3.24498e-13	4.36934e-13	
2.50654e-09	1.15765e-09	-1.7266e-09	1.55495e-09	7.02853e-11	6.68509e-11	-9.62109e-12	2.92433e-11	2.23537e-13	1.68654e-13	-3.24498e-13	4.36934e-13	
2.50654e-09	1.15765e-09	-1.7266e-09	1.55495e-09	7.02853e-11	6.68509e-11	-9.62109e-12	2.92433e-11	2.23537e-13	1.68654e-13	-3.24498e-13	4.36934e-13	
2.50654e-09	1.15765e-09	-1.7266e-09	1.55495e-09	7.02853e-11	6.68509e-11	-9.62109e-12	2.92433e-11	2.23537e-13	1.68654e-13	-3.24498e-13	4.36934e-13	
2.50654e-09	1.15765e-09	-1.7266e-09	1.55495e-09	7.02853e-11	6.68509e-11	-9.62109e-12	2.92433e-11	2.23537e-13	1.68654e-13	-3.24498e-13	4.36934e-13	
2.50654e-09	1.15765e-09	-1.7266e-09	1.55495e-09	7.02853e-11	6.68509e-11	-9.62109e-12	2.92433e-11	2.23537e-13	1.68654e-13	-3.24498e-13	4.36934e-13	
2.50654e-09	1.15765e-09	-1.7266e-09	1.55495e-09	7.02853e-11	6.68509e-11	-9.62109e-12	2.92433e-11	2.23537e-13	1.68654e-13	-3.24498e-13	4.36934e-13	
2.50654e-09	1.15765e-09	-1.7266e-09	1.55495e-09	7.02853e-11	6.68509e-11	-9.62109e-12	2.92433e-11	2.23537e-13	1.68654e-13	-3.24498e-13	4.36934e-13	
2.50654e-09	1.15765e-09	-1.7266e-09	1.55495e-09	7.02853e-11	6.68509e-11	-9.62109e-12	2.92433e-11	2.23537e-13	1.68654e-13	-3.24498e-13	4.36934e-13	
2.50654e-09	1.15765e-09	-1.7266e-09	1.55495e-09	7.02853e-11	6.68509e-11	-9.62109e-12	2.92433e-11	2.23537e-13	1.68654e-13	-3.24498e-13	4.36934e-13	
2.50654e-09	1.15765e-09	-1.7266e-09	1.55495e-09	7.02853e-11	6.68509e-11	-9.62109e-12	2.92433e-11	2.23537e-13	1.68654e-13	-3.24498e-13	4.36934e-13	
2.50654e-09	1.15765e-09	-1.7266e-09	1.55495e-09	7.02853e-11	6.68509e-11	-9.62109e-12	2.92433e-11	2.23537e-13	1.68654e-13	-3.24498e-13	4.36934e-13	
2.50654e-09	1.15765e-09	-1.7266e-09	1.55495e-09	7.02853e-11	6.68509e-11	-9.62109e-12	2.92433e-11	2.23537e-13	1.68654e-13	-3.24498e-13	4.36934e-13	
2.50654e-09	1.15765e-09	-1.7266e-09	1.55495e-09	7.02853e-11	6.68509e-11	-9.62109e-12	2.92433e-11	2.23537e-13	1.68654e-13	-3.24498e-13	4.36934e-13	
2.50654e-09	1.15765e-09	-1.7266e-09	1.55495e-09	7.02853e-11	6.68509e-11	-9.62109e-12	2.92433e-11	2.23537e-13	1.68654e-13	-3.24498e-13	4.36934e-13	
2.50654e-09	1.15765e-09	-1.7266e-09	1.55495e-09	7.02853e-11	6.68509e-11	-9.62109e-12	2.92433e-11	2.23537e-13	1.68654e-13	-3.24498e-13	4.36934e-13	
2.50654e-09	1.15765e-09	-1.7266e-09	1.55495e-09	7.02853e-11	6.68509e-11	-9.62109e-12	2.92433e-11	2.23537e-13	1.68654e-13	-3.24498e-13	4.36934e-13	
2.50654e-09	1.15765e-09	-1.7266e-09	1.55495e-09	7.02853e-11	6.68509e-11	-9.62109e-12	2.92433e-11	2.23537e-13	1.68654e-13	-3.24498e-13	4.36934e-13	
2.50654e-09	1.15765e-09	-1.7266e-09	1.55495e-09	7.02853e-11	6.68509e-11	-9.62109e-12	2.92433e-11	2.23537e-13	1.68654e-13	-3.24498e-13	4.36934e-13	
2.50654e-09	1.15765e-09	-1.7266e-09	1.55495e-09	7.02853e-11	6.68509e-11	-9.62109e-12	2.92433e-11	2.23537e-13	1.68654e-13	-3.24498e-13	4.36934e-13	
2.50654e-09	1.15765e-09	-1.7266e-09	1.55495e-09	7.02853e-11	6.68509e-11	-9.62109e-12	2.92433e-11	2.23537e-13	1.68654e-13	-3.24498e-13	4.36934e-13	
2.50654e-09	1.15765e-09	-1.7266e-09	1.55495e-09	7.02853e-11	6.68509e-11	-9.62109e-12	2.92433e-11	2.23537e-13	1.68654e-13	-3.24498e-13	4.36934e-13	
2.50654e-09	1.15765e-09	-1.7266e-09	1.55495e-09	7.02853e-11	6.68509e-11	-9.62109e-12	2.92433e-11	2.23537e-13	1.68654e-13	-3.24498e-13	4.36934e-13	
2.50654e-09	1.15765e-09	-1.7266e-09	1.55495e-09	7.02853e-11	6.68509e-11	-9.62109e-12	2.92433e-11	2.23537e-13	1.68654e-13	-3.24498e-13	4.36934e-13	
2.50654e-09	1.15765e-09	-1.7266e-09	1.55495e-09	7.02853e-11	6.68509e-11	-9.62109e-12	2.92433e-11	2.23537e-13	1.68654e-13	-3.24498e-13	4.36934e-13	
2.50654e-09	1.15765e-09	-1.7266e-09	1.55495e-09	7.02853e-11	6.68509e-11	-9.62109e-12	2.92433e-11	2.23537e-13	1.68654e-13	-3.24498e-13	4.36934e-13	
2.50654e-09	1.15765e-09	-1.7266e-09	1.55495e-09	7.02853e-11	6.68509e-11	-9.62109e-12	2.92433e-11	2.23537e-13	1.68654e-13	-3.24498e-13	4.36934e-13	
2.50654e-09	1.15765e-09	-1.7266e-09	1.55495e-09	7.02853e-11	6.68509e-11	-9.62109e-12	2.92433e-11	2.23537e-13	1.68654e-13	-3.24498e-13	4.36934e-13	
2.50654e-09	1.15765e-09	-1.7266e-09	1.55495e-09	7.02853e-11	6.68509e-11	-9.62109e-12	2.92433e-11	2.23537e-13	1.68654e-13	-3.24498e-13	4.36934e-13	
2.50654e-09	1.15765e-09	-1.7266e-09	1.55495e-09	7.02853e-11	6.68509e-11	-9.62109e-12	2.92433e-11	2.23537e-13	1.68654e-13	-3.24498e-13	4.36934e-13	
2.50654e-09	1.15765e-09	-1.7266e-09	1.55495e-09	7.02853e-11	6.68509e-11	-9.62109e-12	2.92433e-11	2.23537e-13	1.68654e-13	-3.24498e-13	4.36934e-13	
2.50654e-09	1.15765e-09	-1.7266e-09	1.55495e-09	7.02853e-11	6.68509e-11	-9.62109e-12	2.92433e-11	2.23537e-13	1.68654e-13	-3.24498e-13	4.36934e-13	
2.50654e-09	1.15765e-09	-1.7266e-09	1.55495e-09	7.02853e-11	6.68509e-11	-9.62109e-12	2.92433e-11	2.23537e-13	1.68654e-13	-3.24498e-13	4.36934e-13	
2.50654e-09	1.15765e-09	-1.7266e-09	1.55495e-09	7.02853e-11	6.68509e-11	-9.62109e-12	2.92433e-11	2.23537e-13	1.68654e-13	-3.24498e-13	4.36934e-13	
2.50654e-09	1.15765e-09	-1.7266e-09	1.55495e-09	7.02853e-11	6.68509e-11	-9.62109e-12	2.92433e-11	2.23537e-13	1.68654e-13	-3.24498e-13	4.36934e-13	
2.50654e-09	1.15765e-09	-1.7266e-09	1.55495e-09	7.02853e-11	6.68509e-11	-9.62109e-12	2.92433e-11	2.23537e-13	1.68654e-13	-3.24498e-13	4.36934e-13	
2.50654e-09	1.15765e-09	-1.7266e-09	1.55495e-09	7.02853e-11	6.68509e-11	-9.62109e-12	2.92433e-11	2.23537e-13	1.68654e-13	-3.24498e-13	4.36934e-13	
2.50654e-09	1.15765e-09	-1.7266e-09	1.55495e-09	7.02853e-11	6.68509e-11	-9.62109e-12	2.92433e-11	2.23537e-13	1.68654e-13	-3.24498e-13	4.36934e-13	
2.50654e-09	1.15765e-09	-1.7266e-09	1.55495e-09	7.02853e-11	6.68509e-11	-9.62109e-12	2.92433e-11	2.23537e-13	1.68654e-13	-3.24498e-13	4.36934e-13	
2.50654e-09	1.15765e-09	-1.7266e-09	1.55495e-09	7.02853e-11	6.68509e-11	-9.62109e-12	2.92433e-11	2.23537e-13	1.68654e-13	-3.24498e-13	4.36934e-13	
2.50654e-09	1.15765e-09	-1.7266e-09	1.55495e-09	7.02853e-11	6.68509e-11	-9.62109e-12	2.92433e-11	2.23537e-13	1.68654e-13	-3.24498e-13	4.36934e-13	
2.50654e-09	1.15765e-09	-1.7266e-09	1.55495e-09	7.02853e-11	6.68509e-11	-9.62109e-12	2.92433e-11	2.23537e-13	1.68654e-13	-3.24498e-13	4.36934e-13	
2.50654e-09	1.15765e-09	-1.7266e-09	1.55495e-09	7.02853e-11	6.68509e-11	-9.62109e-12	2.92433e-11	2.23537e-13	1.68654e-13	-3.24498e-13	4.36934e-13	
2.50654e-09	1.15765e-09	-1.7266e-09	1.55495e-09	7.02853e-11	6.68509e-11	-9.62109e-12	2.92433e-11	2.23537e-13	1.68654e-13	-3.24498e-13	4.36934e-13	
2.50654e-09	1.15765e-09	-1.7266e-09	1.55495e-09	7.02853e-11	6.68509e-11	-9.62109e-12	2.92433e-11	2.23537e-13	1.68654e-13	-3.24498e-13	4.36934e-13	
2.50654e-09	1.15765e-09	-1.7266e-09	1.55495e-09	7.02853e-11	6.68509e-11	-9.62109e-12	2.92433e-11	2.23537e-13	1.68654e-13	-3.24498e-13	4.36934e-13	
2.50654e-09	1.15765e-09	-1.7266e-09	1.55495e-09	7.02853e-11	6.68509e-11	-9.62109e-12	2.92433e-11	2.23537e-13	1.68654e-13	-3.24498e-13	4.36934e-13	
2.50654e-09	1.15765e-09	-1.7266e-09	1.55495e-09	7.02853e-11	6.68509e-11	-9.62109e-12	2.92433e-11	2.23537e-13	1.68654e-13	-3.24498e-13	4.36934e-13	
2.50654e-09	1.15765e-09	-1.7266e-09	1.55495e-09	7.02853e-11	6.68509e-11	-9.62109e-12	2.92433e-11	2.23537e-13	1.68654e-13	-3.24498e-13	4.36934e-13	
2.50654e-09	1.15765e-09	-1.7266e-09	1.55495e-09	7.02853e-11	6.68509e-11	-9.62109e-12	2.92433e-11	2.23537e-13	1.68654e-13	-3.24498e-13	4.36934e-13	
2.50654e-09	1.15765e-09	-1.7266e-09	1.55495e-09	7.02853e-11	6.68509e-11	-9.62109e-12	2.92433e-11	2.23537e-13	1.68654e-13	-3.24498e-13	4.36934e-13	
2.50654e-09	1.15765e-09	-1.7266e-09	1.55495e-09	7.02853e-11	6.68509e-11	-9.62109e-12	2.92433e-11	2.23537e-13	1.68654e-13	-3.24498e-13	4.36934e-13	
2.50654e-09	1.15765e-09	-1.7266e-09	1.55495e-09	7.02853e-11	6.68509e-11	-9.62109e-12	2.92433e-11	2.23537e-13	1.68654e-13	-3.24498e-13	4.36934e-13	
2.50654e-09	1.15765e-09	-1.7266e-09	1.55495e-09	7.02853e-11	6.68509e-11	-9.62109e-12	2.92433e-11	2.23537e-13	1.68654e-13	-3.24498e-13	4.36934e-13	
2.50654e-09	1.15765e-09	-1.7266e-09	1.55495e-09	7.02853e-11	6.68509e-11	-9.62109e-12	2.92433e-11	2.23537e-13	1.68654e-13	-3.24498e-13	4.36934e-13	
2.50654e-09	1.15765e-09	-1.7266e-09	1.55495e-09	7.02853e-11	6.68509e-11	-9.62109e-12	2.92433e-11	2.23537e-13	1.68654e-13	-3.24498e-13	4.36934e-13	
2.50654e-09	1.15765e-09	-1.7266e-09	1.55495e-09	7.02853e-11	6.68509e-11	-9.62109e-12	2.92433e-11	2.23537e-13	1.68654e-13	-3.24498e-13	4.36934e-13	
2.50654e-09	1.15765e-09	-1.7266e-09	1.55495e-09	7.02853e-11	6.68509e-11	-9.62109e-12	2.92433e-11	2.23537e-13	1.68654e-13	-3.24498e-13	4.36934e-13	
2.50654e-09	1.15765e-09	-1.7266e-09	1.55495e-09	7.02853e-11	6.68509e-11	-9.62109e-12	2.92433e-11	2.23537e-13	1.68654e-13	-3.24498e-13	4.36934e-13	
2.50654e-09	1.15765e-09	-1.7266e-09	1.55495e-09	7.02853e-11	6.68509e-11	-9.62109e-12	2.92433e-11	2.23537e-13	1.68654e-13	-3.24498e-13	4.36934e-13	
2.50654e-09	1.15765e-09	-1.7266e-09	1.55495e-09	7.02853e-11	6.68509e-11	-9.62109e-12	2.92433e-11	2.23537e-13	1.68654e-13	-3.24498e-13	4.36934e-13	
2.50654e-09	1.15765e-09	-1.7266e-09	1.55495e-09	7.02853e-11	6.68509e-11	-9.62109e-12	2.92433e-11	2.23537e-13	1.68654e-13	-3.24498e-13	4.36934e-13	
2.50654e-09	1.15765e-09	-1.7266e-09	1.55495e-09	7.02853e-11	6.68509e-11	-9.62109e-12	2.92433e-11	2.23537e-13	1.68654e-13	-3.24498e-13	4.36934e-13	
2.50654e-09	1.15765e-09	-1.7266e-09	1.55495e-09	7.02853e-11	6.68509e-11	-9.62109e-12	2.92433e-11	2.23537e-13	1.68654e-13	-3.24498e-13	4.36934e-13	
2.50654e-09	1.15765e-09	-1.7266e-09	1.55495e-09	7.02853e-11	6.68509e-11	-9.62109e-12	2.92433e-11	2.23537e-13	1.68654e-13	-3.24498e-13	4.36934e-13	
2.50654e-09	1.15765e-09	-1.7266e-09	1.55495e-09	7.02853e-11	6.68509e-11	-9.62109e-12	2.92433e-11	2.23537e-13	1.68654e-13	-3.24498e-13	4.36934e-13	
2.50654e-09	1.15765e-09	-1.7266e-09	1.55495e-09	7.02853e-11	6.68509e-11	-9.62109e-12	2.92433e-11	2.23537e-13	1.68654e-13	-3.24498e-13	4.36934e-13	
2.50654e-09	1.15765e-09	-1.7266e-09	1.55495e-09	7.02853e-11	6.68509e-11	-9.62109e-12	2.92433e-11	2.23537e-13	1.68654e-13	-3.24498e-13	4.36934e-13	
2.50654e-09	1.15765e-09	-1.7266e-09	1.55495e-09	7.02853e-11	6.68509e-11	-9.62109e-12	2.92433e-11	2.23537e-13	1.68654e-13	-3.24498e-13	4.36934e-13	
2.50654e-09	1.15765e-09	-1.7266e-09	1.55495e-09	7.02853e-11	6.68509e-11	-9.62109e-12	2.92433e-11	2.23537e-13	1.68654e-13	-3.24498e-13	4.36934e-13	
2.50654e-09	1.15765e-09	-1.7266e-09	1.55495e-09	7.02853e-11	6.68509e-11	-9.62109e-12	2.92433e-11	2.23537e-13	1.68654e-13	-3.24498e-13	4.36934e-13	
2.50654e-09	1.15765e-09	-1.7266e-09	1.55495e-09	7.02853e-11	6.68509e-11	-9.62109e-12	2.92433e-11	2.23537e-13	1.68654e-13	-3.24498e-13	4.36934e-13	
2.50654e-09	1.15765e-09	-1.7266e-09	1.55495e-09	7.02853e-11	6.68509e-11	-9.62109e-12	2.92433e-11	2.23537e-13	1.68654e-13	-3.24498e-13	4.36934e-13	
2.50654e-09	1.15765e-09	-1.7266e-09	1.55495e-09	7.02853e-11	6.68509e-11	-9.62109e-12	2.92433e-11	2.23537e-13	1.68654e-13	-3.24498e-13	4.36934e-13	
2.50654e-09	1.15765e-09	-1.7266e-09	1.55495e-09	7.02853e-11	6.68509e-11	-9.62109e-12	2.92433e-11	2.23537e-13	1.68654e-13	-3.24498e-13	4.36934e-13	
2.50654e-09	1.15765e-09	-1.7266e-09	1.55495e-09	7.02853e-11	6.68509e-11	-9.62109e-12	2.92433e-11	2.23537e-13	1.68654e-13	-3.24498e-13	4.36934e-13	
2.50654e-09	1.15765e-09	-1.7266e-09	1.55495e-09	7.02853e-11	6.68509e-11	-9.62109e-12	2.92433e-11	2.23537e-13	1.68654e-13	-3.24498e-13	4.36934e-13	
2.50654e-09	1.15765e-09	-1.7266e-09	1.55495e-09	7.02853e-11	6.68509e-11	-9.62109e-12	2.92433e-11	2.23537e-13	1.68654e-13	-3.24498e-13	4.36934e-13	
2.50654e-09	1.15765e-09	-1.7266e-09	1.55495e-09	7.02853e-11	6.68509e-11	-9.62109e-12	2.92433e-11	2.23537e-13	1.68654e-13	-3.24498e-13	4.36934e-13	
2.50654e-09	1.15765e-09	-1.7266e-09	1.55495e-09	7.02853e-11	6.68509e-11	-9.62109e-12	2.92433e-11	2.23537e-13	1.68654e-13	-3.24498e-13	4.36934e-13	
2.50654e-09	1.15765e-09	-1.7266e-09	1.55495e-09	7.02853e-11	6.68509e-11	-9.62109e-12	2.92433e-11	2.23537e-13	1.68654e-13	-3.24498e-13	4.36934e-13	
2.50654e-09	1.15765e-09	-1.7266e-09	1.55495e-09	7.02853e-11	6.68509e-11	-9.62109e-12	2.92433e-11	2.23537e-13	1.68654e-13	-3.24498e-13	4.36934e-13	
2.50654e-09	1.15765e-09	-1.7266e-09	1.55495e-09	7.02853e-11	6.68509e-11	-9.62109e-12	2.92433e-11	2.23537e-13	1.68654e-13	-3.24498e-13	4.36934e-13	
2.50654e-09	1.15765e-09	-1.7266e-09	1.55495e-09	7.02853e-11	6.68509e-11	-9.62109e-12	2.92433e-11	2.23537e-13	1.68654e-13	-3.24498e-13	4.36934e-13	
2.50654e-09	1.15765e-09	-1.7266e-09	1.55495e-09	7.02853e-11	6.68509e-11	-9.62109e-12	2.92433e-11	2.23537e-13	1.68654e-13	-3.24498e-13	4.36934e-13	
2.50654e-09	1.15765e-09	-1.7266e-09	1.55495e-09	7.02853e-11	6.68509e-11	-9.62109e-12	2.92433e-11	2.23537e-13	1.68654e-13	-3.24498e-13	4.36934e-13	
2.50654e-09	1.15765e-09	-1.7266e-09	1.55495e-09	7.02853e-11	6.68509e-11	-9.62109e-12	2.92433e-11	2.23537e-13	1.68654e-13	-3.24498e-13	4.36934e-13	
2.50654e-09	1.15765e-09	-1.7266e-09	1.55495e-09	7.02853e-11	6.68509e-11	-9.62109e-12	2.92433e-11	2.23537e-13	1.68654e-13	-3.24498e-13	4.36934e-13	
2.50654e-09	1.15765e-09	-1.7266e-09	1.55495e-09	7.02853e-11	6.68509e-11	-9.62109e-12	2.92433e-11	2.23537e-13	1.68654e-13	-3.24498e-13	4.36934e-13	
2.50654e-09	1.15765e-09	-1.7266e-09	1.55495e-09	7.02853e-11	6.68509e-11	-9.62109e-12	2.92433e-11	2.23537e-13	1.68654e-13	-3.24498e-13	4.36934e-13	
2.50654e-09	1.15765e-09	-1.7266e-09	1.55495e-09	7.02853e-11	6.68509e-11	-9.62109e-12	2.92433e-11	2.23537e-13	1.68654e-13	-3.24498e-13	4.36934e-13	
2.50654e-09	1.15765e-09	-1.7266e-09	1.55495e-09	7.02853e-11	6.68509e-11	-9.62109e-12	2.92433e-11	2.23537e-13	1.68654e-13	-3.24498e-13	4.36934e-13	
2.50654e-09	1.15765e-09	-1.7266e-09	1.55495e-09	7.02853e-11	6.68509e-11	-9.62109e-12	2.92433e-11	2.23537e-13	1.68654e-13	-3.24498e-13	4.36934e-13	
2.50654e-09	1.15765e-09	-1.7266e-09	1.55495e-09	7.02853e-11	6.68509e-11	-9.62109e-12	2.92433e-11	2.23537e-13	1.68654e-13	-3.24498e-13	4.36934e-13	
2.50654e-09	1.15765e-09	-1.7266e-09	1.55495e-09	7.02853e-11	6.68509e-11	-9.62109e-12	2.92433e-11	2.23537e-13	1.68654e-13	-3.24498e-13	4.36934e-13	
2.50654e-09	1.15765e-09	-1.7266e-09	1.55495e-09	7.02853e-11	6.68509e-11	-9.62109e-12	2.92433e-11	2.23537e-13	1.68654e-13	-3.24498e-13	4.36934e-13	
2.50654e-09	1.15765e-09	-1.7266e-09	1.55495e-09	7.02853e-11	6.68509e-11	-9.62109e-12	2.92433e-11	2.23537e-13	1.68654e-13	-3.24498e-13	4.36934e-13	
2.50654e-09	1.15765e-09	-1.7266e-09	1.55495e-09	7.02853e-11	6.68509e-11	-9.62109e-12	2.92433e-11	2.23537e-13	1.68654e-13	-3.24498e-13	4.36934e-13	
2.50654e-09	1.15765e-09	-1.7266e-09	1.55495e-09	7.02853e-11	6.68509e-11	-9.62109e-12	2.92433e-11	2.23537e-13	1.68654e-13	-3.24498e-13	4.36934e-13	
2.50654e-09	1.15765e-09	-1.7266e-09	1.55495e-09	7.02853e-11	6.68509e-11	-9.62109e-12	2.92433e-11	2.23537e-13	1.68654e-13	-3.24498e-13	4.36934e-13	
2.50654e-09	1.15765e-09	-1.7266e-09	1.55495e-09	7.02853e-11	6.68509e-11	-9.62109e-12	2.92433e-11	2.23537e-13	1.68654e-13	-3.24498e-13	4.36934e-13	
2.50654e-09	1.15765e-09	-1.7266e-09	1.55495e-09	7.02853e-11	6.68509e-11	-9.62109e-12	2.92433e-11	2.23537e-13	1.68654e-13	-3.24498e-13	4.36934e-13	
2.50654e-09	1.15765e-09	-1.7266e-09	1.55495e-09	7.02853e-11	6.68509e-11	-9.62109e-12	2.92433e-11	2.23537e-13	1.68654e-13	-3.24498e-13	4.36934e-13	
2.50654e-09	1.15765e-09	-1.7266e-09	1.55495e-09	7.02853e-11	6.68509e-11	-9.62109e-12	2.92433e-11	2.23537e-13	1.68654e-13	-3.24498e-13	4.36934e-13	
2.50654e-09	1.15765e-09	-1.7266e-09	1.55495e-09	7.02853e-11	6.68509e-11	-9.62109e-12	2.92433e-11	2.23537e-13	1.68654e-13	-3.24498e-13	4.36934e-13	
2.50654e-09	1.15765e-09	-1.7266e-09	1.55495e-09	7.02853e-11	6.68509e-11	-9.62109e-12	2.92433e-11	2.23537e-13	1.68654e-13	-3.24498e-13	4.36934e-13	
2.50654e-09	1.15765e-09	-1.7266e-09	1.55495e-09	7.02853e-11	6.68509e-11	-9.62109e-12	2.92433e-11	2.23537e-13	1.68654e-13	-3.24498e-13	4.36934e-13	
2.50654e-09	1.15765e-09	-1.7266e-09	1.55495e-09	7.02853e-11	6.68509e-11	-9.62109e-12	2.92433e-11	2.23537e-13	1.68654e-13	-3.24498e-13	4.36934e-13	
2.50654e-09	1.15765e-09	-1.7266e-09	1.55495e-09	7.02853e-11	6.68509e-11	-9.62109e-12	2.92433e-11	2.23537e-13	1.68654e-13	-3.24498e-13	4.36934e-13	
2.50654e-09	1.15765e-09	-1.7266e-09	1.55495e-09	7.02853e-11	6.68509e-11	-9.62109e-12	2.92433e-11	2.23537e-13	1.68654e-13	-3.24498e-13	4.36934e-13	
2.50654e-09	1.15765e-09	-1.7266e-09	1.55495e-09	7.02853e-11	6.68509e-11	-9.62109e-12	2.92433e-11	2.23537e-13	1.68654e-13	-3.24498e-13	4.36934e-13	
2.50654e-09	1.15765e-09	-1.7266e-09	1.55495e-09	7.02853e-11	6.68509e-11	-9.62109e-12	2.92433e-11	2.23537e-13	1.68654e-13	-3.24498e-13	4.36934e-13	
2.50654e-09	1.15765e-09	-1.7266e-09	1.55495e-09	7.02853e-11	6.68509e-11	-9.62109e-12	2.92433e-11	2.23537e-13	1.68654e-13	-3.24498e-13	4.36934e-13	
2.50654e-09	1.15765e-09	-1.7266e-09	1.55495e-09	7.02853e-11	6.68509e-11	-9.62109e-12	2.92433e-11	2.23537e-13	1.68654e-13	-3.24498e-13	4.36934e-13	
2.50654e-09	1.15765e-09	-1.7266e-09	1.55495e-09	7.02853e-11	6.68509e-11	-9.62109e-12	2.92433e-11	2.23537e-13	1.68654e-13	-3.24498e-13	4.36934e-13	
2.50654e-09	1.15765e-09	-1.7266e-09	1.55495e-09	7.02853e-11	6.68509e-11	-9.62109e-12	2.92433e-11	2.23537e-13	1.68654e-13	-3.24498e-13	4.36934e-13	
2.50654e-09	1.15765e-09	-1.7266e-09	1.55495e-09	7.02853e-11	6.68509e-11	-9.62109e-12	2.92433e-11	2.23537e-13	1.68654e-13	-3.24498e-13	4.36934e-13	
2.50654e-09	1.15765e-09	-1.7266e-09	1.55495e-09	7.02853e-11	6.68509e-11	-9.62109e-12	2.92433e-11	2.23537e-13	1.68654e-13	-3.24498e-13	4.36934e-13	
2.50654e-09	1.15765e-09	-1.7266e-09	1.55495e-09	7.02853e-11	6.68509e-11	-9.62109e-12	2.92433e-11	2.23537e-13	1.68654e-13	-3.24498e-13	4.36934e-13	
2.50654e-09	1.15765e-09	-1.7266e-09	1.55495e-09	7.02853e-11	6.68509e-11	-9.62109e-12	2.92433e-11	2.23537e-13	1.68654e-13	-3.24498e-13	4.36934e-13	
2.50654e-09	1.15765e-09	-1.7266e-09	1.55495e-09	7.02853e-11	6.68509e-11	-9.62109e-12	2.92433e-11	2.23537e-13	1.68654e-13	-3.24498e-13	4.36934e-13	
2.50654e-09	1.15765e-09	-1.7266e-09	1.55495e-09	7.02853e-11	6.68509e-11	-9.62109e-12	2.92433e-11	2.23537e-13	1.68654e-13	-3.24498e-13	4.36934e-13	
2.50654e-09	1.15765e-09	-1.7266e-09	1.55495e-09	7.02853e-11	6.68509e-11	-9.62109e-12	2.92433e-11	2.23537e-13	1.68654e-13	-3.24498e-13	4.36934e-13	
2.50654e-09	1.15765e-09	-1.7266e-09	1.55495e-09	7.02853e-11	6.68509e-11	-9.62109e-12	2.92433e-11	2.23537e-13	1.68654e-13	-3.24498e-13	4.36934e-13	
2.50654e-09	1.15765e-09	-1.7266e-09	1.55495e-09	7.02853e-11	6.68509e-11	-9.62109e-12	2.92433e-11	2.23537e-13	1.68654e-13	-3.24498e-13	4.36934e-13	
2.50654e-09	1.15765e-09	-1.7266e-09	1.55495e-09	7.02853e-11	6.68509e-11	-9.62109e-12	2.92433e-11	2.23537e-13	1.68654e-13	-3.24498e-13	4.36934e-13	
2.50654e-09	1.15765e-09	-1.7266e-09	1.55495e-09	7.02853e-11	6.68509e-11	-9.62109e-12	2.92433e-11	2.23537e-13	1.68654e-13	-3.24498e-13	4.36934e-13	
2.50654e-09	1.15765e-09	-1.7266e-09	1.55495e-09	7.02853e-11	6.68509e-11	-9.62109e-12	2.92433e-11	2.23537e-13	1.68654e-13	-3.24498e-13	4.36934e-13	
2.50654e-09	1.15765e-09	-1.7266e-09	1.55495e-09	7.02853e-11	6.68509e-11	-9.62109e-12	2.92433e-11	2.23537e-13	1.68654e-13	-3.24498e-13	4.36934e-13	
2.50654e-09	1.15765e-09	-1.7266e-09	1.55495e-09	7.02853e-11	6.68509e-11	-9.62109e-12	2.92433e-11	2.23537e-13	1.68654e-13	-3.24498e-13	4.36934e-13	
2.50654e-09	1.15765e-09	-1.7266e-09	1.55495e-09	7.02853e-11	6.68509e-11	-9.62109e-12	2.92433e-11	2.23537e-13	1.68654e-13	-3.24498e-13	4.36934e-13	
2.50654e-09	1.15765e-09	-1.7266e-09	1.55495e-09	7.02853e-11	6.68509e-11	-9.62109e-12	2.92433e-11	2.23537e-13	1.68654e-13	-3.24498e-13	4.36934e-13	
2.50654e-09	1.15765e-09	-1.7266e-09	1.55495e-09	7.02853e-11	6.68509e-11	-9.62109e-12	2.92433e-11	2.23537e-13	1.68654e-13	-3.24498e-13	4.36934e-13	
2.50654e-09	1.15765e-09	-1.7266e-09	1.55495e-09	7.02853e-11	6.68509e-11	-9.62109e-12	2.92433e-11	2.23537e-13	1.68654e-13	-3.24498e-13	4.36934e-13	
2.50654e-09	1.15765e-09	-1.7266e-09	1.55495e-09	7.02853e-11	6.68509e-11	-9.62109e-12	2.92433e-11	2.23537e-13	1.68654e-13	-3.24498e-13	4.36934e-13	
2.50654e-09	1.15765e-09	-1.7266e-09	1.55495e-09	7.02853e-11	6.68509e-11	-9.62109e-12	2.92433e-11	2.23537e-13	1.68654e-13	-3.24498e-13	4.36934e-13	
2.50654e-09	1.15765e-09	-1.7266e-09	1.55495e-09	7.02853e-11	6.68509e-11	-9.62109e-12	2.92433e-11	2.23537e-13	1.68654e-13	-3.24498e-13	4.36934e-13	
2.50654e-09	1.15765e-09	-1.7266e-09	1.55495e-09	7.02853e-11	6.68509e-11	-9.62109e-12	2.92433e-11	2.23537e-13	1.68654e-13	-3.24498e-13	4.36934e-13	
2.50654e-09	1.15765e-09	-1.7266e-09	1.55495e-09	7.02853e-11	6.68509e-11	-9.62109e-12	2.92433e-11	2.23537e-13	1.68654e-13	-3.24498e-13	4.36934e-13	
2.50654e-09	1.15765e-09	-1.7266e-09	1.55495e-09	7.02853e-11	6.68509e-11	-9.62109e-12	2.92433e-11	2.23537e-13	1.68654e-13	-3.24498e-13	4.36934e-13	
2.50654e-09	1.15765e-09	-1.7266e-09	1.55495e-09	7.02853e-11	6.68509e-11	-9.62109e-12	2.92433e-11	2.23537e-13	1.68654e-13	-3.24498e-13	4.36934e-13	
2.50654e-09	1.15765e-09	-1.7266e-09	1.55495e-09	7.02853e-11	6.68509e-11	-9.62109e-12	2.92433e-11	2.23537e-13	1.68654e-13	-3.24498e-13	4.36934e-13	
2.50654e-09	1.15765e-09	-1.7266e-09	1.55495e-09	7.02853e-11	6.68509e-11	-9.62109e-12	2.92433e-11	2.23537e-13	1.68654e-13	-3.24498e-13	4.36934e-13	
2.50654e-09	1.15765e-09	-1.7266e-09	1.55495e-09	7.02853e-11	6.68509e-11	-9.62109e-12	2.92433e-11	2.23537e-13	1.68654e-13	-3.24498e-13	4.36934e-13	
2.50654e-09	1.15765e-09	-1.7266e-09	1.55495e-09	7.02853e-11	6.68509e-11	-9.62109e-12	2.92433e-11	2.23537e-13	1.68654e-13	-3.24498e-13	4.36934e-13	
2.50654e-09	1.15765e-09	-1.7266e-09	1.55495e-09	7.02853e-11	6.68509e-11	-9.62109e-12	2.92433e-11	2.23537e-13	1.68654e-13	-3.24498e-13	4.36934e-13	
2.50654e-09	1.15765e-09	-1.7266e-09	1.55495e-09	7.02853e-11	6.68509e-11	-9.62109e-12	2.92433e-11	2.23537e-13	1.68654e-13	-3.24498e-13	4.36934e-13	
2.50654e-09	1.15765e-09	-1.7266e-09	1.55495e-09	7.02853e-11	6.68509e-11	-9.62109e-12	2.92433e-11	2.23537e-13	1.68654e-13	-3.24498e-13	4.36934e-13	
2.50654e-09	1.15765e-09	-1.7266e-09	1.55495e-09	7.02853e-11	6.68509e-11	-9.62109e-12	2.92433e-11	2.23537e-13	1.68654e-13	-3.24498e-13	4.36934e-13	
2.50654e-09	1.15765e-09	-1.7266e-09	1.55495e-09	7.02853e-11	6.68509e-11	-9.62109e-12	2.92433e-11	2.23537e-13	1.68654e-13	-3.24498e-13	4.36934e-13	
2.50654e-09	1.15765e-09	-1.7266e-09	1.55495e-09	7.02853e-11	6.68509e-11	-9.62109e-12	2.92433e-11	2.23537e-13	1.68654e-13	-3.24498e-13	4.36934e-13	
2.50654e-09	1.15765e-09	-1.7266e-09	1.55495e-09	7.02853e-11	6.68509e-11	-9.62109e-12	2.92433e-11	2.23537e-13	1.68654e-13	-3.24498e-13	4.36934e-13	
2.50654e-09	1.15765e-09	-1.7266e-09	1.55495e-09	7.02853e-11	6.68509e-11	-9.62109e-12	2.92433e-11	2.23537e-13	1.68654e-13	-3.24498e-13	4.36934e-13	
2.50654e-09	1.15765e-09	-1.7266e-09	1.55495e-09	7.02853e-11	6.68509e-11	-9.62109e-12	2.92433e-11	2.23537e-13	1.68654e-13	-3.24498e-13	4.36934e-13	
2.50654e-09	1.15765e-09	-1.7266e-09	1.55495e-09	7.02853e-11	6.68509e-11	-9.62109e-12	2.92433e-11	2.23537e-13	1.68654e-13	-3.24498e-13	4.36934e-13	
2.50654e-09	1.15765e-09	-1.7266e-09	1.55495e-09	7.02853e-11	6.68509e-11	-9.62109e-12	2.92433e-11	2.23537e-13	1.68654e-13	-3.24498e-13	4.36934e-13	
2.50654e-09	1.15765e-09	-1.7266e-09	1.55495e-09	7.02853e-11	6.68509e-11	-9.62109e-12	2.92433e-11	2.23537e-13	1.68654e-13	-3.24498e-13	4.36934e-13	
2.50654e-09	1.15765e-09	-1.7266e-09	1.55495e-09	7.02853e-11	6.68509e-11	-9.62109e-12	2.92433e-11	2.23537e-13	1.68654e-13	-3.24498e-13	4.36934e-13	
2.50654e-09	1.15765e-09	-1.7266e-09	1.55495e-09	7.02853e-11	6.68509e-11	-9.62109e-12	2.92433e-11	2.23537e-13	1.68654e-13	-3.24498e-13	4.36934e-13	
2.50654e-09	1.15765e-09	-1.7266e-09	1.55495e-09	7.02853e-11	6.68509e-11	-9.62109e-12	2.92433e-11	2.23537e-13	1.68654e-13	-3.24498e-13	4.36934e-13	
2.50654e-09	1.15765e-09	-1.7266e-09	1.55495e-09	7.02853e-11	6.68509e-11	-9.62109e-12	2.92433e-11	2.23537e-13	1.68654e-13	-3.24498e-13	4.36934e-13	
2.50654e-09	1.15765e-09	-1.7266e-09	1.55495e-09	7.02853e-11	6.68509e-11	-9.62109e-12	2.92433e-11	2.23537e-13	1.68654e-13	-3.24498e-13	4.36934e-13	
2.50654e-09	1.15765e-09	-1.7266e-09	1.55495e-09	7.02853e-11	6.68509e-11	-9.62109e-12	2.92433e-11	2.23537e-13	1.68654e-13	-3.24498e-13	4.36934e-13	
2.50654e-09	1.15765e-09	-1.7266e-09	1.55495e-09	7.02853e-11	6.68509e-11	-9.62109e-12	2.92433e-11	2.23537e-13	1.68654e-13	-3.24498e-13	4.36934e-13	
2.50654e-09	1.15765e-09	-1.7266e-09	1.55495e-09	7.02853e-11	6.68509e-11	-9.62109e-12	2.92433e-11	2.23537e-13	1.68654e-13	-3.24498e-13	4.36934e-13	
2.50654e-09	1.15765e-09	-1.7266e-09	1.55495e-09	7.02853e-11	6.68509e-11	-9.62109e-12	2.92433e-11	2.23537e-13	1.68654e-13	-3.24498e-13	4.36934e-13	
2.50654e-09	1.15765e-09	-1.7266e-09	1.55495e-09	7.02853e-11	6.68509e-11	-9.62109e-12	2.92433e-11	2.23537e-13	1.68654e-13	-3.24498e-13	4.36934e-13	
2.50654e-09	1.15765e-09	-1.7266e-09	1.55495e-09	7.02853e-11	6.68509e-11	-9.62109e-12	2.92433e-11	2.23537e-13	1.68654e-13	-3.24498e-13	4.36934e-13	
2.50654e-09	1.15765e-09	-1.7266e-09	1.55495e-09	7.02853e-11	6.68509e-11	-9.62109e-12	2.92433e-11	2.23537e-13	1.68654e-13	-3.24498e-13	4.36934e-13	
2.50654e-09	1.15765e-09	-1.7266e-09	1.55495e-09	7.02853e-11	6.68509e-11	-9.62109e-12	2.92433e-11	2.23537e-13	1.68654e-13	-3.24498e-13	4.36934e-13	
2.50654e-09	1.15765e-09	-1.7266e-09	1.55495e-09	7.02853e-11	6.68509e-11	-9.62109e-12	2.92433e-11	2.23537e-13	1.68654e-13	-3.24498e-13	4.36934e-13	
2.50654e-09	1.15765e-09	-1.7266e-09	1.55495e-09	7.02853e-11	6.68509e-11	-9.62109e-12	2.92433e-11	2.23537e-13	1.68654e-13	-3.24498e-13	4.36934e-13	
2.50654e-09	1.15765e-09	-1.7266e-09	1.55495e-09	7.02853e-11	6.68509e-11	-9.62109e-12	2.92433e-11	2.23537e-13	1.68654e-13	-3.24498e-13	4.36934e-13	
2.50654e-09	1.15765e-09	-1.7266e-09	1.55495e-09	7.02853e-11	6.68509e-11	-9.62109e-12	2.92433e-11	2.23537e-13	1.68654e-13	-3.24498e-13	4.36934e-13	
2.50654e-09	1.15765e-09	-1.7266e-09	1.55495e-09	7.02853e-11	6.68509e-11	-9.62109e-12	2.92433e-11	2.23537e-13	1.68654e-13	-3.24498e-13	4.36934e-13	
2.50654e-09	1.15765e-09	-1.7266e-09	1.55495e-09	7.02853e-11	6.68509e-11	-9.62109e-12	2.92433e-11	2.23537e-13	1.68654e-13	-3.24498e-13	4.36934e-13	
2.50654e-09	1.15765e-09	-1.7266e-09	1.55495e-09	7.02853e-11	6.68509e-11	-9.62109e-12	2.92433e-11	2.23537e-13	1.68654e-13	-3.24498e-13	4.36934e-13	
2.50654e-09	1.15765e-09	-1.7266e-09	1.55495e-09	7.02853e-11	6.68509e-11	-9.62109e-12	2.92433e-11	2.23537e-13	1.68654e-13	-3.24498e-13	4.36934e-13	
2.50654e-09	1.15765e-09	-1.7266e-09	1.55495e-09	7.02853e-11	6.68509e-11	-9.62109e-12	2.92433e-11	2.23537e-13	1.68654e-13	-3.24498e-13	4.36934e-13	
2.50654e-09	1.15765e-09	-1.7266e-09	1.55495e-09	7.02853e-11	6.68509e-11	-9.62109e-12	2.92433e-11	2.23537e-13	1.68654e-13	-3.24498e-13	4.36934e-13	
2.50654e-09	1.15765e-09	-1.7266e-09	1.55495e-09	7.02853e-11	6.68509e-11	-9.62109e-12	2.92433e-11	2.23537e-13	1.68654e-13	-3.24498e-13	4.36934e-13	
2.50654e-09	1.15765e-09	-1.7266e-09	1.55495e-09	7.02853e-11	6.68509e-11	-9.62109e-12	2.92433e-11	2.23537e-13	1.68654e-13	-3.24498e-13	4.36934e-13	
2.50654e-09	1.15765e-09	-1.7266e-09	1.55495e-09	7.02853e-11	6.68509e-11	-9.62109e-12	2.92433e-11	2.23537e-13	1.68654e-13	-3.24498e-13	4.36934e-13	
2.50654e-09	1.15765e-09	-1.7266e-09	1.55495e-09	7.02853e-11	6.68509e-11	-9.62109e-12	2.92433e-11	2.23537e-13	1.68654e-13	-3.24498e-13	4.36934e-13	
2.50654e-09	1.15765e-09	-1.7266e-09	1.55495e-09	7.02853e-11	6.68509e-11	-9.62109e-12	2.92433e-11	2.23537e-13	1.68654e-13	-3.24498e-13	4.36934e-13	
2.50654e-09	1.15765e-09	-1.7266e-09	1.55495e-09	7.02853e-11	6.68509e-11	-9.62109e-12	2.92433e-11	2.23537e-13	1.68654e-13	-3.24498e-13	4.36934e-13	
2.50654e-09	1.15765e-09	-1.7266e-09	1.55495e-09	7.02853e-11	6.68509e-11	-9.62109e-12	2.92433e-11	2.23537e-13	1.68654e-13	-3.24498e-13	4.36934e-13	
2.50654e-09	1.15765e-09	-1.7266e-09	1.55495e-09	7.02853e-11	6.68509e-11	-9.62109e-12	2.92433e-11	2.23537e-13	1.68654e-13	-3.24498e-13	4.36934e-13	
2.50654e-09	1.15765e-09	-1.7266e-09	1.55495e-09	7.02853e-11	6.68509e-11	-9.62109e-12	2.92433e-11	2.23537e-13	1.68654e-13	-3.24498e-13	4.36934e-13	
2.50654e-09	1.15765e-09	-1.7266e-09	1.55495e-09	7.02853e-11	6.68509e-11	-9.62109e-12	2.92433e-11	2.23537e-13	1.68654e-13	-3.24498e-13	4.36934e-13	
2.50654e-09	1.15765e-09	-1.7266e-09	1.55495e-09	7.02853e-11	6.68509e-11	-9.62109e-12	2.92433e-11	2.23537e-13	1.68654e-13	-3.24498e-13	4.36934e-13	
2.50654e-09	1.15765e-09	-1.7266e-09	1.55495e-09	7.02853e-11	6.68509e-11	-9.62109e-12	2.92433e-11	2.23537e-13	1.68654e-13	-3.24498e-13	4.36934e-13	
2.50654e-09	1.15765e-09	-1.7266e-09	1.55495e-09	7.02853e-11	6.68509e-11	-9.62109e-12	2.92433e-11	2.23537e-13	1.68654e-13	-3.24498e-13	4.36934e-13	
2.50654e-09	1.15765e-09	-1.7266e-09	1.55495e-09	7.02853e-11	6.68509e-11	-9.62109e-12	2.92433e-11	2.23537e-13	1.68654e-13	-3.24498e-13	4.36934e-13	
2.50654e-09	1.15765e-09	-1.7266e-09	1.55495e-09	7.02853e-11	6.68509e-11	-9.62109e-12	2.92433e-11	2.23537e-13	1.68654e-13	-3.24498e-13	4.36934e-13	
2.50654e-09	1.15765e-09	-1.7266e-09	1.55495e-09	7.02853e-11	6.68509e-11	-9.62109e-12	2.92433e-11	2.23537e-13	1.68654e-13	-3.24498e-13	4.36934e-13	
2.50654e-09	1.15765e-09	-1.7266e-09	1.55495e-09	7.02853e-11	6.68509e-11	-9.62109e-12	2.92433e-11	2.23537e-13	1.68654e-13	-3.24498e-13	4.36934e-13	
2.50654e-09	1.15765e-09	-1.7266e-09	1.55495e-09	7.02853e-11	6.68509e-11	-9.62109e-12	2.92433e-11	2.23537e-13	1.68654e-13	-3.24498e-13	4.36934e-13	
2.50654e-09	1.15765e-09	-1.7266e-09	1.55495e-09	7.02853e-11	6.68509e-11	-9.62109e-12	2.92433e-11	2.23537e-13	1.68654e-13	-3.24498e-13	4.36934e-13	
2.50654e-09	1.15765e-09	-1.7266e-09	1.55495e-09	7.02853e-11	6.68509e-11	-9.62109e-12	2.92433e-11	2.23537e-13	1.68654e-13	-3.24498e-13	4.36934e-13	
2.50654e-09	1.15765e-09	-1.7266e-09	1.55495e-09	7.02853e-11	6.68509e-11	-9.62109e-12	2.92433e-11	2.23537e-13	1.68654e-13	-3.24498e-13	4.36934e-13	
2.50654e-09	1.15765e-09	-1.7266e-09	1.55495e-09	7.02853e-11	6.68509e-11	-9.62109e-12	2.92433e-11	2.23537e-13	1.68654e-13	-3.24498e-13	4.36934e-13	
2.50654e-09	1.15765e-09	-1.7266e-09	1.55495e-09	7.02853e-11	6.68509e-11	-9.62109e-12	2.92433e-11	2.23537e-13	1.68654e-13	-3.24498e-13	4.36934e-13	
2.50654e-09	1.15765e-09	-1.7266e-09	1.55495e-09	7.02853e-11	6.68509e-11	-9.62109e-12	2.92433e-11	2.23537e-13	1.68654e-13	-3.24498e-13	4.36934e-13	
2.50654e-09	1.15765e-09	-1.7266e-09	1.55495e-09	7.02853e-11	6.68509e-11	-9.62109e-12	2.92433e-11	2.23537e-13	1.68654e-13	-3.24498e-13	4.36934e-13	
2.50654e-09	1.15765e-09	-1.7266e-09	1.55495e-09	7.02853e-11	6.68509e-11	-9.62109e-12	2.92433e-11	2.23537e-13	1.68654e-13	-3.24498e-13	4.36934e-13	
2.50654e-09	1.15765e-09	-1.7266e-09	1.55495e-09	7.02853e-11	6.68509e-11	-9.62109e-12	2.92433e-11	2.23537e-13	1.68654e-13	-3.24498e-13	4.36934e-13	
