#f	lead1	lead2	lead3	lead4	lead5	lead6	lead7	lead8	lead9	lead10	lead11	lead12
0.501756	180955	214202	707514	862586	963177	1.62882e+06	1.35085e+06	1.30712e+06	1.65673e+06	1.51197e+06	1.4956e+06	0
1.00351	249111	111442	824392	803098	1.09852e+06	1.44275e+06	734074	1.02133e+06	1.04426e+06	1.06245e+06	935953	0
1.50527	63226.6	85288.7	285965	272472	407078	496399	199139	331144	401926	389164	353538	0
2.00702	5.37815	6092.7	5853.59	79206.1	62597.5	18148.7	4524.59	897.076	35563.4	27210.9	45974.5	0
2.50878	3614.88	8708.21	6129.53	170930	67394.1	12092.9	30439.3	27935.9	7711.21	15036	5712.5	0
3.01054	1.70677	2669.5	6178.42	14264.7	2255.02	35363.8	96296.2	18697.2	54575.7	52474.9	58053.7	0
3.51229	788.381	3136.59	20846	44995.5	22130.3	71684.5	114660	48164.1	124891	106993	109425	0
4.01405	0.863785	1493.28	1307.4	4043.14	35434.5	60367.2	38566	31701.3	57955.5	60029.2	86521.7	0
4.51581	269.413	1634.24	4307.95	18077.2	71466.6	88456.8	60087	38413.9	9670.3	17190.9	38327.2	0
5.01756	0.527405	953.194	491.761	4560.69	10762.7	29384.2	4346.96	2009.1	29303.1	23124.8	17728.7	0
5.51932	116.722	1012.46	2545.11	6427.06	1709.66	30186.3	16346.7	35212.6	42237.3	67427.9	81924.3	0
6.02107	0.357174	660.997	590.254	2640.3	28063.8	8091.38	4283.1	1063.52	3157.02	7359.43	12569.2	0
6.52283	58.7001	692.769	1335.12	3353.58	73994.4	29231.3	36438.6	20488.2	42118.9	16296.3	5964.25	0
7.02459	0.258517	485.222	429.515	1701.14	11357.1	9180.81	8127.25	30507.5	24106.1	12062	1494.3	0
7.52634	32.7255	505.685	857.126	2049.37	4813.35	3520.36	9719.95	60190.7	33646.5	26501.2	16943.4	0
8.0281	0.196008	371.303	335.338	1165.73	3766.33	8794.93	5204.14	52348.8	29265.6	46198.9	51499.2	0
8.52985	19.6804	386.15	594.349	1430.64	37229.2	1877.59	5856.83	10141.2	15081	34302.9	60377.7	0
9.03161	0.153856	293.276	265.427	857.058	8828.48	3073.68	794.384	3661.95	1603.47	2984.88	9405.61	0
9.53337	12.5441	305.006	438.596	1067.08	3637.69	9637.82	5382.66	9134.04	5573.26	6622.45	1792.45	0
10.0351	0.124043	237.502	215.336	660.811	35.707	5164.18	1886.54	20180.1	1649.87	237.064	8616.24	0
10.5369	8.37251	247.191	337.796	831.833	12336	934.729	14592.8	23084.4	23223.9	16453.1	31527.2	0
11.0386	0.10216	196.256	178.125	527.512	4813.92	1429.65	6072.17	7963.61	13579.6	15361.2	32027.1	0
11.5404	5.80178	204.576	268.797	669.043	2022.6	4776.81	9044.52	23441.3	5395.3	20873.7	49851.8	0
12.0421	0.0856155	164.896	149.776	432.074	756.819	8340.44	8089.83	26998.5	3392.64	37900.9	78591.3	0
12.5439	4.14705	172.144	219.316	550.898	3714.29	7461.69	5936.03	42238.2	10104.9	44991.6	69782.9	0
13.0457	0.0728052	140.498	127.689	361.122	2205.42	55.4831	3143.11	24234.8	13001.4	27487.7	28382.6	0
13.5474	3.04302	146.952	182.646	462.347	1115.13	723.966	5284.61	8908.09	10353.4	14728.5	26830.1	0
14.0492	0.062672	121.143	110.148	306.712	822.098	1793.97	8111.2	967.314	967.942	7965.39	39662.6	0
14.5509	2.28331	126.908	154.602	393.92	1338.07	5973.81	4387.4	4015.52	9386.69	20619.7	47684.7	0
15.0527	0.0545294	105.531	95.9865	264.02	1030.07	201.792	4451.28	1307.21	7704.03	10114.2	10533.9	0
15.5544	1.74689	110.763	132.716	340.039	678.22	1393.17	4657.57	10712.3	22047.1	19487.8	25369.2	0
16.0562	0.0478803	92.7563	84.3916	229.814	588.371	504.037	2426.8	10446.9	27942.9	38317.3	66314.6	0
16.558	1.35922	97.496	115.223	296.618	656.167	3331.98	2243.08	4299.74	3313.73	8243.76	18687.9	0
17.0597	0.0423811	82.1706	74.778	201.981	547.937	391.718	8283.61	20677	7156.14	7533.47	7126.15	0
17.5615	1.07349	86.5229	101.074	261.248	461.388	1704.95	9891.09	10863.7	6316.07	10164.1	6168.43	0
18.0632	0.0377522	73.3002	66.721	178.986	392.342	631.9	454.477	757.969	4837.06	2650.38	9098.03	0
18.565	0.859068	77.2804	89.3947	231.87	416.148	2216	666.431	4526.98	17144.8	15308.9	26287.9	0
19.0667	0.0338715	65.793	59.8971	159.769	337.023	484.187	1596.8	280.199	1382.38	1106.42	1393.68	0
19.5685	0.695687	69.4812	79.6965	207.341	342.07	1666.03	7151.8	6487.07	12926.2	27506.4	44136.6	0
20.0702	0.0305577	59.3846	54.0708	143.521	270.268	554.088	972.897	7186.92	8197.01	12882	30660.8	0
20.572	0.56939	62.7833	71.4941	186.494	305.93	1633.85	1555.45	13200.2	19655.9	22856	37891.1	0
21.0738	0.0277051	53.8697	49.056	129.673	231.482	444.779	287.425	1705.04	7691.81	16136.9	26252.9	0
21.5755	0.470472	57.037	64.5395	168.74	268.273	1355.91	1883.36	4916.55	8906.77	4651.56	8669.33	0
22.0773	0.025232	49.0907	44.7098	117.754	196.43	436.785	1675.42	3231.6	12331.7	21006.4	42450	0
22.579	0.392171	52.0235	58.5439	153.376	241.91	1173.63	532.612	1154.87	415.349	1850.21	14573.1	0
23.0808	0.0230803	44.9207	40.9156	107.43	171.092	365.326	533.895	1346.22	9622.07	12394.3	20789.1	0
23.5825	0.329531	47.6708	53.3843	140.111	218.074	980.594	316.369	1082.73	1232.13	6562.53	12408.3	0
24.0843	0.0211881	41.2617	37.5867	98.4145	149.752	329.485	2101.88	4016.61	1421.09	152.252	3737.89	0
24.5861	0.278919	43.8206	48.8642	128.452	198.656	813.037	1452.71	975.641	334.345	1953.28	16633.8	0
25.0878	0.0195219	38.0321	34.6479	90.5047	132.779	276.872	260.513	1519.84	671.834	2869.38	12008.1	0
25.5896	0.23767	40.4442	44.9266	118.268	181.632	674.079	752.052	654.368	242.104	5318.41	3543.31	0
26.0913	0.0180487	35.1692	32.0422	83.5172	118.511	237.896	1529.38	1301.27	468.696	3390	4163.67	0
26.5931	0.203785	37.4221	41.4297	109.202	166.921	553.927	4247.68	3894.29	1159.71	1311.7	6892.4	0
27.0948	0.0167264	32.6177	29.72	77.3204	106.639	198.947	2419.96	1345.73	1147.3	2051.67	88.1654	0
27.5966	0.175711	34.7494	38.3528	101.207	154.006	458.296	2593.35	2901.41	5065.58	3248.54	17537.3	0
28.0983	0.0155535	30.3354	27.6423	71.7911	96.5051	167.255	367.713	4248.92	10731.2	24809.7	36600.2	0
28.6001	0.152336	32.3337	35.5901	94.0136	142.559	378.834	4215.67	5371.38	6341.99	21430.4	12079.2	0
29.1019	0.0145065	28.2843	25.7746	66.8424	87.8584	139.551	4639.53	2916.66	1924.27	4258.96	414.987	0
29.6036	0.132639	30.1818	33.137	87.6163	132.426	315.911	4518.29	1753.15	1336.31	1001.42	15.5043	0
30.1054	0.0135337	26.4362	24.0931	62.3922	80.3545	116.635	953.489	4052.75	2897.08	2055.68	2994.53	0
30.6071	0.11617	28.2198	30.9158	81.8118	123.324	265.01	1337.16	5192.62	5855.18	6030.57	3651.5	0
31.1089	0.0126823	24.7625	22.5687	58.3747	73.8374	97.5497	3863.74	2066.98	1707.14	2345.3	595.112	0
31.6106	0.102127	26.4629	28.9315	76.619	115.203	224.66	4395.21	1556.23	3253.73	405.969	24.8544	0
32.1124	0.0118963	23.2446	21.1867	54.737	68.104	81.7887	3151.27	842.619	1757.42	1322.56	4261.81	0
32.6141	0.0901623	24.8472	27.1154	71.8604	107.826	192.251	158.44	895.686	4177.04	5049.01	11561.7	0
33.1159	0.0111937	21.8617	19.927	51.4332	63.0586	68.8792	1457.24	1625.35	4356.67	2741.96	7796.86	0
33.6177	0.0798444	23.393	25.4847	67.5807	101.197	166.4	2345	1462.99	707.317	670.167	5819.49	0
34.1194	0.010548	20.5992	18.7775	48.4196	58.5617	58.2259	3986.15	3352.86	5514.61	5643.04	8591.16	0
34.6212	0.0710054	22.0468	23.9816	63.6331	95.1255	145.488	1643.95	3514.82	2824.32	1309.68	3437.62	0
35.1229	0.00995361	19.4436	17.7245	45.6685	54.5678	49.5348	290.515	5703.72	2817.05	1026.15	2549.84	0
35.6247	0.0633101	20.8303	22.6244	60.0645	89.6404	128.588	464.892	1677	424.456	758.469	3692.67	0
36.1264	0.00940766	18.3829	16.7585	43.1437	50.9672	42.3319	2540.07	1708.94	7125.34	2069.55	2116	0
36.6282	0.0567226	19.6964	21.366	56.7513	84.5812	114.688	2794.12	679.35	6664.92	7098.36	10249.1	0
37.13	0.00890314	17.4073	15.87	40.8295	47.7491	36.437	583.33	3851.46	1944.47	3155.48	9657	0
37.6317	0.0509226	18.6689	20.226	53.7478	79.9909	103.248	62.8176	3208.33	216.476	902.095	4235.54	0
38.1335	0.008448	16.5077	15.0504	38.6944	44.8199	31.5069	834.681	1478.85	3094.05	51.8606	303.083	0
38.6352	0.0458381	17.7045	19.16	50.9371	75.7241	93.6193	2166.57	2281.76	4391.53	1072.85	1734.1	0
39.137	0.00801695	15.6757	14.2928	36.7252	42.1775	27.4452	816.302	73.6399	988.937	686.159	3585.31	0
39.6387	0.0413966	16.8287	18.1928	48.384	71.841	85.5411	500.281	1839.45	2884.31	933.94	1251.52	0
40.1405	0.00761919	14.9063	13.5921	34.9041	39.7596	24.0049	440.697	67.8131	123.519	656.552	467.407	0
40.6422	0.0374673	16.0013	17.2821	45.9787	68.2076	78.5759	990.768	1527.13	2276.44	2855.1	560.917	0
41.144	0.00724983	14.1919	12.9413	33.2172	37.5631	21.1454	444.178	657.844	632.724	348.335	3816.05	0
41.6458	0.0339818	15.2487	16.4535	43.7893	64.8898	72.6183	645.849	980.36	4437.47	14101.3	21190.2	0
42.1475	0.00691115	13.5284	12.3369	31.6495	35.5409	18.6895	887.965	3142.43	3510.48	11174.7	10433.1	0
42.6493	0.030916	14.5339	15.6697	41.7159	61.7704	67.3717	471.287	451.61	81.6431	47.0677	543.555	0
43.151	0.00659114	12.9102	11.7739	30.192	33.6923	16.6276	64.2022	524.297	2099.9	738.987	3661.49	0
43.6528	0.028186	13.8828	14.9554	39.8254	58.9164	62.8117	343.873	441.856	4183.73	3708.93	3601.52	0
44.1545	0.00629952	12.3341	11.2487	28.8338	31.9833	14.8347	1093.73	3651.76	6715.77	13952.2	7238.64	0
44.6563	0.0257393	13.2609	14.2751	38.0249	56.2163	58.7152	515.498	2772.36	4298.98	2976.66	562.344	0
45.1581	0.00602325	11.7955	10.7581	27.5664	30.4121	13.3143	84.5274	269.4	403.939	1647.85	3273.73	0
45.6598	0.0235383	12.694	13.6551	36.3821	53.7415	55.1128	130.341	2804.09	4727.04	3236.91	4185.17	0
46.1616	0.00575827	11.2926	10.3003	26.3829	28.9535	11.9751	781.681	2627.66	5098.51	919.321	1233.13	0
46.6633	0.0216179	12.1486	13.0602	34.8062	51.3856	51.8229	569.346	1737.04	3880.14	3908.11	5250.14	0
47.1651	0.00552023	10.8194	9.86879	25.2708	27.6046	10.8318	289.29	43.1528	2066.46	7276.83	12679.3	0
47.6668	0.0198023	11.6519	12.5177	33.3675	49.2238	48.9009	276.159	3358.96	3795.97	2226.61	2745.42	0
48.1686	0.00529492	10.3775	9.46633	24.2312	26.3468	9.80755	336.067	4566.9	6059.67	8713.71	13555.3	0
48.6703	0.0182741	11.1716	11.9955	31.9818	47.1596	46.2033	449.901	815.585	1472.11	1717.72	3154.09	0
49.1721	0.00507867	9.96123	9.08707	23.2549	25.1832	8.93318	358.698	905.71	1516.01	4436.86	5306.38	0
49.6739	0.016848	10.7335	11.5182	30.7153	45.2598	43.7903	568.194	2763.72	4534.71	5557.31	3112.53	0
50.1756	0.00488932	9.57019	8.73032	22.3361	24.0883	8.13642	74.8729	2552.15	3732.77	5589.24	6504.67	0
50.6774	0.0155908	10.3091	11.0587	29.4917	43.4403	41.5389	294.981	881.012	2126.98	8235.92	11537	0
51.1791	0.00468963	9.20171	8.395	21.4726	23.0759	7.45398	256.008	1549.82	83.2036	219.524	732.062	0
51.6809	0.0144008	9.92064	10.6353	28.3709	41.7621	39.5084	719.756	4865.15	2871.03	2961.24	7939.17	0
52.1826	0.00451195	8.85481	8.07896	20.6584	22.1213	6.82696	3.67727	729.498	1410.72	296.759	2126.37	0
52.6844	0.0133188	9.54162	10.2238	27.2805	40.1457	37.5969	217.94	364.21	613.919	1130.37	138.137	0
53.1861	0.00436336	8.52518	7.77741	19.8851	21.2281	6.28528	124.212	462.866	1071.29	310.464	638.474	0
53.6879	0.0123862	9.19846	9.85276	26.2895	38.662	35.8767	665.718	3480.37	483.566	734.709	4276.03	0
54.1897	0.00418245	8.21752	7.49845	19.1656	20.3936	5.78584	3.26566	938.522	1201.24	2551.25	4548.22	0
54.6914	0.0114984	8.85938	9.48483	25.314	37.2168	34.2326	205.017	714.449	1221.91	9558.97	9040.59	0
55.1932	0.00403325	7.9239	7.23076	18.4789	19.6092	5.35277	59.2781	1015.29	2312.91	5357.65	5313.11	0
55.6949	0.010695	8.55131	9.15111	24.4264	35.8917	32.7508	510.203	744.19	206.821	59.6827	383.441	0
56.1967	0.00389098	7.64692	6.97841	17.8298	18.8665	4.94767	4.73541	298.44	471.111	774.277	888.313	0
56.6984	0.00997064	8.24821	8.82434	23.5556	34.6047	31.3333	206.254	430.742	1524.2	1932.61	2132.38	0
57.2002	0.00375876	7.38298	6.73765	17.2128	18.169	4.59641	52.0363	1025.07	2052.9	5865.89	2939.74	0
57.702	0.00928493	7.9715	8.52423	22.7592	33.4128	30.0475	362.891	160.591	73.3406	1355.31	1209.77	0
58.2037	0.00362262	7.13411	6.51152	16.631	17.5107	4.26478	2.19288	181.825	391.854	2392.09	5350.39	0
58.7055	0.0087046	7.69914	8.23058	21.9767	32.2594	28.81	204.126	523.167	256.369	631.002	1981.81	0
59.2072	0.00350868	6.89713	6.29515	16.077	16.8897	3.97739	57.1837	198.194	743.453	1704.59	1781.41	0
59.709	0.00812967	7.45036	7.96219	21.2613	31.1941	27.6871	266.288	102.207	129.461	2154.7	8725.32	0
60.2107	0.0033882	6.67223	6.09064	15.5508	16.3021	3.7032	3.57189	187.17	1983.57	147.233	5489.02	0
60.7125	0.00762132	7.20262	7.69557	20.5511	30.1472	26.5972	204.832	524.215	371.975	459.215	395.302	0
61.2142	0.00328165	6.45758	5.89472	15.0502	15.7459	3.46774	51.3604	51.3166	112.22	532.878	428.665	0
61.716	0.00712888	6.97795	7.45263	19.9046	29.184	25.6062	214.346	370.904	410.614	1852.04	656.237	0
62.2178	0.00313828	6.25503	5.71204	14.5775	15.2206	3.24043	7.92386	302.804	3363.65	2892.16	542.795	0
62.7195	0.00669274	6.75331	7.21058	19.261	28.2368	24.6358	210.979	98.6894	1158.91	1444.21	418.369	0
63.2213	0.00307415	6.05951	5.53211	14.1202	14.7181	3.0423	36.854	0.477617	196.818	571.174	597.032	0
63.723	0.00628992	6.54998	6.99141	18.6761	27.3661	23.7631	188.714	429.118	94.2757	4100.28	10570.6	0
64.2248	0.00290272	5.87705	5.36877	13.6961	14.2535	2.86098	10.6346	344.617	3086.93	8648.9	16925.7	0
64.7265	0.00591109	6.34615	6.77254	18.0929	26.5084	22.9026	215.779	1.14947	2019.71	2460.4	3951.27	0
65.2283	0.00288973	5.69766	5.20229	13.2759	13.7911	2.68591	22.6983	146.769	1071.98	2334.59	1745.86	0
65.7301	0.00554805	6.16042	6.5713	17.5573	25.7137	22.1225	175.404	331.507	571.851	234.914	194.787	0
66.2318	0.0028057	5.5292	5.04871	12.882	13.3598	2.52453	10.4908	99.79	1791.69	6183.61	9219.29	0
66.7336	0.00524243	5.97398	6.37161	17.0247	24.9295	21.3478	211.948	51.5979	3041.98	5026.77	6545.33	0
67.2353	0.00272003	5.3671	4.90115	12.5049	12.9516	2.38558	13.3684	235.551	1878.11	3204.19	6935.68	0
67.7371	0.00493238	5.80532	6.19004	16.54	24.209	20.651	166.4	301.277	1758.24	8082.47	12826	0
68.2388	0.00264056	5.21375	4.7614	12.1466	12.5615	2.24825	9.11789	4.34918	624.156	1710.41	2417.39	0
68.7406	0.00466436	5.63457	6.00684	16.0524	23.4924	19.955	198.214	261.409	3190.74	6314.81	5189.43	0
69.2423	0.0025647	5.06662	4.62752	11.8031	12.1923	2.13135	8.54531	189.243	1885.76	1553.36	2569.48	0
69.7441	0.00440375	5.48004	5.84039	15.6078	22.8328	19.3292	157.691	159.795	1682.13	3763.67	5109.74	0
70.2459	0.00249376	4.9249	4.49809	11.4732	11.8345	2.01281	8.07075	14.1692	72.1249	509.888	952.576	0
70.7476	0.00416636	5.32374	5.6733	15.1627	22.1752	18.7022	178.315	375.624	2281.17	4113.47	2939.13	0
71.2494	0.00241252	4.78919	4.3749	11.1576	11.4978	1.91246	6.40619	201.747	1533.14	2499.41	1683.9	0
71.7511	0.00390863	5.18409	5.52259	14.7593	21.5802	18.1418	147.913	77.6844	860.888	661.26	1387.6	0
72.2529	0.00236603	4.6594	4.25581	10.8542	11.1692	1.81053	7.58223	111.786	17.541	73.4152	2251.22	0
72.7546	0.00372363	5.03793	5.36574	14.3425	20.9698	17.5647	157.105	270.326	1608.31	4917.07	3926.45	0
73.2564	0.00229287	4.53477	4.14251	10.5644	10.8623	1.72414	5.47994	141.65	1107.09	4238.94	4360.55	0
73.7581	0.00355136	4.90777	5.22623	13.9699	20.4135	17.0603	137.19	88.2074	462.508	142.441	288.861	0
74.2599	0.00222715	4.4162	4.03495	10.2886	10.5676	1.63687	7.19785	198.127	41.895	108.518	537.901	0
74.7617	0.003353	4.77519	5.08402	13.5906	19.8613	16.5331	137.938	174.553	1477.46	2628.84	2283.79	0
75.2634	0.00216794	4.30068	3.9295	10.0196	10.2823	1.56291	4.98301	63.4727	890.772	2539.08	2270.28	0
75.7652	0.0031592	4.656	4.95636	13.2484	19.3504	16.0689	126.37	136.879	504.104	33.6752	14.3296	0
76.2669	0.00211032	4.19105	3.82978	9.76417	10.0095	1.4863	6.57986	179.773	22.5607	121.289	736.153	0
76.7687	0.00302173	4.53243	4.82366	12.8957	18.8384	15.5934	122.111	98.8545	1069.52	616.172	79.7186	0
77.2704	0.00206334	4.08469	3.73238	9.51641	9.74838	1.42183	4.56691	43.9384	917.886	1129.28	2346.1	0
77.7722	0.00287548	4.42263	4.70618	12.5811	18.3704	15.1722	116.012	151.499	790.104	550.179	1878.05	0
78.274	0.0020078	3.98309	3.64007	9.27921	9.49748	1.35603	5.71195	142.674	582.309	800.252	3458.37	0
78.7757	0.00272922	4.30876	4.58309	12.2555	17.8945	14.7372	109.521	40.1071	317.31	417.891	1630.6	0
79.2775	0.00196466	3.88442	3.54972	9.04983	9.25642	1.29946	4.12122	60.1573	890.524	2385.23	1273.48	0
79.7792	0.0025965	4.2072	4.47495	11.9643	17.4623	14.3477	106.369	96.2165	942.102	1075.86	3198.82	0
80.281	0.00191288	3.79119	3.46486	8.8328	9.02609	1.24164	4.76087	93.1387	1774.92	71.0624	439.201	0
80.7827	0.0024819	4.10083	4.3615	11.6611	17.0202	13.9492	99.4389	20.6099	152.766	2050.59	9836.6	0
81.2845	0.00186498	3.69951	3.38145	8.62018	8.80445	1.19269	3.63803	70.747	470.268	3646.54	9004.35	0
81.7862	0.00236035	4.00705	4.26081	11.3923	16.6215	13.5933	97.4874	40.3267	585.064	1751.02	4809.22	0
82.288	0.0018133	3.612	3.30198	8.41627	8.58828	1.14082	3.88643	40.0419	2151.1	175.96	2630.21	0
82.7898	0.00224939	3.9083	4.1552	11.1103	16.2099	13.2216	91.0748	18.6657	957.05	701.92	2995.4	0
83.2915	0.00177639	3.52772	3.22494	8.22058	8.3855	1.09898	3.16191	53.5306	19.4185	1492.14	3438.58	0
83.7933	0.00215683	3.82167	4.0633	10.8646	15.8448	12.9011	89.3354	10.696	94.9337	737.377	1653.57	0
84.295	0.00174029	3.44608	3.15012	8.02941	8.1837	1.05304	3.16225	14.4735	1125.72	3.3854	2514.93	0
84.7968	0.00203827	3.72885	3.96302	10.5978	15.4561	12.5533	83.836	16.7043	1624.94	249.804	1205.29	0
85.2985	0.00169139	3.3678	3.07939	7.84901	7.99697	1.01661	2.71794	30.0004	257.358	31.2794	252.553	0
85.8003	0.00195438	3.64821	3.87655	10.3662	15.1119	12.2542	81.8784	2.25576	41.4703	715.847	2549.66	0
86.3021	0.00165484	3.29201	3.01008	7.67186	7.81214	0.976313	2.58835	9.15428	165.774	539.565	1520.28	0
86.8038	0.0018744	3.56248	3.78506	10.1219	14.7574	11.9403	77.3667	9.50156	1208.07	422.618	648.058	0
87.3056	0.00161331	3.21852	2.94342	7.50173	7.63538	0.942822	2.32623	12.2478	820.861	1130.53	914.388	0
87.8073	0.00180528	3.48714	3.70435	9.90615	14.4357	11.6611	75.1394	9.14247	188.653	46.9805	59.8636	0
88.3091	0.00157995	3.14828	2.87931	7.33794	7.46488	0.908064	2.13915	9.56256	173.702	325.879	1068.13	0
88.8108	0.00170767	3.40667	3.61836	9.67666	14.1014	11.3667	71.4844	5.27055	398.123	0.219328	680.689	0
89.3126	0.00154682	3.07859	2.81555	7.17581	7.29745	0.877296	1.97716	2.67877	846.867	988.324	2104.05	0
89.8143	0.00164124	3.33442	3.54139	9.47056	13.7981	11.1038	69.0811	16.5359	170.611	872.829	1324.47	0
90.3161	0.00150527	3.01385	2.75708	7.02585	7.14155	0.847129	1.78043	8.42973	351.69	2170.32	2035.25	0
90.8179	0.00157287	3.26174	3.4639	9.26325	13.4942	10.8386	66.1402	8.62611	169.096	3560.04	1137.86	0
91.3196	0.00148227	2.94988	2.69911	6.87793	6.98797	0.8193	1.66303	3.33141	381.577	465.813	546.512	0
91.8214	0.0015139	3.19589	3.39342	9.07455	13.2137	10.6003	63.7338	19.3345	198.657	157.81	1079.52	0
92.3231	0.00144898	2.88801	2.64209	6.73314	6.83811	0.792514	1.485	6.27032	135.025	591.246	1190.67	0
92.8249	0.00145476	3.12561	3.31848	8.87506	12.9242	10.3464	61.2647	16.4289	313.591	6310.23	9033.27	0
93.3266	0.00142196	2.82715	2.58625	6.59133	6.69372	0.768516	1.39242	8.46029	36.5574	5984.09	4255.71	0
93.8284	0.00138317	3.06376	3.25179	8.69688	12.6592	10.1215	58.9771	19.5949	423.57	219.491	407.833	0
94.3302	0.00138444	2.77015	2.53475	6.45929	6.55676	0.744663	1.23517	6.40494	114.453	1284.99	2341.31	0
94.8319	0.00133113	2.99778	3.18158	8.50913	12.3865	9.88501	56.8631	23.3917	300.503	906.898	730.836	0
95.3337	0.00134885	2.71353	2.48346	6.32811	6.42272	0.723592	1.15284	13.1065	52.4548	1220.11	1765.85	0
95.8354	0.00128022	2.94063	3.12051	8.34531	12.1438	9.68066	54.7769	18.9407	502.091	819.573	432.982	0
96.3372	0.0013363	2.65856	2.43265	6.19975	6.28771	0.700403	1.02298	9.64751	550.476	142.641	663.206	0
96.8389	0.00119205	2.87898	3.05085	8.16136	11.8778	9.45126	52.905	24.8917	258.2	1816.24	3043.28	0
97.3407	0.00130481	2.60595	2.38485	6.07772	6.16541	0.682098	0.94776	15.6261	217.856	1196.47	2084.05	0
97.8424	0.00118326	2.82449	2.99636	8.01463	11.6574	9.26632	51.0423	18.2714	258.989	457.821	95.4757	0
98.3442	0.00126669	2.55615	2.34001	5.96217	6.05135	0.664641	0.839206	14.2136	627.881	281.84	966.192	0
98.846	0.00113213	2.76598	2.93406	7.84705	11.4148	9.05809	49.376	21.5605	293.922	118.643	514.709	0
99.3477	0.00125186	2.50499	2.29287	5.84327	5.925	0.644662	0.772233	15.9561	275.878	816.531	369.053	0
99.8495	0.00109216	2.71434	2.87888	7.69954	11.1968	8.87544	47.6937	17.4938	121.558	420.484	436.31	0
100.351	0.00122845	2.45771	2.24991	5.73343	5.81206	0.62689	0.686174	17.3687	149.397	547.803	500.176	0
100.853	0.0010492	2.65954	2.82039	7.54373	10.9707	8.6811	46.1933	16.8225	164.364	208.364	1485.19	0
101.355	0.00120527	2.41014	2.2064	5.62255	5.69937	0.611609	0.626154	15.527	174.773	428.814	150.163	0
101.856	0.00101133	2.61278	2.77015	7.40901	10.7694	8.51549	44.7214	15.8557	332.276	1623.17	1051.86	0
102.358	0.00118163	2.36566	2.16595	5.5196	5.59366	0.59543	0.556618	18.1184	59.086	527.023	432.254	0
102.86	0.00097357	2.56013	2.71438	7.25995	10.5539	8.32987	43.337	12.6538	32.1105	219.222	59.6538	0
103.362	0.00115522	2.32118	2.12553	5.41633	5.48872	0.581476	0.503371	15.3971	42.1365	23.4674	36.5377	0
103.864	0.0009512	2.51625	2.66774	7.13404	10.3662	8.17701	42.0364	12.9328	489.096	1509.98	1211.02	0
104.365	0.00113502	2.27893	2.08696	5.31819	5.38735	0.566555	0.447089	17.0941	528.207	1658.01	855.836	0
104.867	0.000922606	2.4667	2.6152	6.99351	10.1637	8.00298	40.7678	9.58525	221.916	893.27	101.747	0
105.369	0.00110863	2.23691	2.04877	5.22052	5.28915	0.554227	0.402706	15.4053	0.359414	506.12	194.832	0
105.871	0.000872991	2.42434	2.56932	6.87172	9.98116	7.85452	39.5959	9.46229	377.27	305.76	309.154	0
106.372	0.00109035	2.19729	2.01252	5.1278	5.19438	0.541101	0.356937	15.2615	763.509	1189.25	1179.86	0
106.874	0.000844755	2.37789	2.51966	6.73901	9.79008	7.6913	38.4417	7.42974	465.878	266.776	864.099	0
107.376	0.00107571	2.15738	1.97606	5.036	5.10145	0.529763	0.319342	14.9366	23.4517	16.353	318.311	0
107.878	0.00081677	2.33835	2.47759	6.62644	9.62193	7.55362	37.3873	6.54043	324.975	324.588	313.561	0
108.379	0.00105302	2.12002	1.9422	4.94938	5.01243	0.518034	0.281939	13.5195	732.32	688.416	1278.88	0
108.881	0.000786874	2.29384	2.42998	6.49973	9.43891	7.39768	36.33	5.79738	469.554	155.985	121.719	0
109.383	0.00103405	2.08168	1.90725	4.8604	4.9225	0.506766	0.25104	13.8962	30.3793	344.366	349.552	0
109.885	0.000760602	2.25644	2.39021	6.39303	9.2786	7.26875	35.3811	4.60538	422.536	6.59793	43.472	0
110.386	0.00101357	2.04654	1.87526	4.77899	4.84016	0.496532	0.22006	12.4007	978.328	761.303	3483.73	0
110.888	0.000734224	2.21469	2.34583	6.27475	9.10638	7.12201	34.4106	4.41495	488.416	1039.47	6184.88	0
111.39	0.000963772	2.01147	1.84494	4.69872	4.75876	0.488675	0.194958	12.6888	58.5814	145.561	1769.55	0
111.892	0.000713628	2.17963	2.30851	6.17427	8.95539	6.99998	33.5443	3.43569	338.165	348.64	1571.96	0
112.393	0.00098235	1.97697	1.81169	4.61753	4.67689	0.47679	0.170289	11.8476	1245.68	271.077	1602.83	0
112.895	0.000688768	2.13896	2.26521	6.05842	8.79146	6.86221	32.6566	3.2257	671.202	119.079	1502.23	0
113.397	0.000966814	1.94311	1.78071	4.53842	4.59672	0.467669	0.150462	11.6918	165.797	17.146	1090.96	0
113.899	0.00066705	2.10553	2.23058	5.96446	8.65208	6.74912	31.868	2.6531	76.1293	648.935	430.776	0
114.4	0.000944307	1.91111	1.75196	4.46485	4.5219	0.458963	0.129924	11.5551	937.922	687.965	3518.66	0
114.902	0.000628567	2.06669	2.18737	5.85242	8.48729	6.6118	31.0478	2.28945	713.177	377.788	3446.29	0
115.404	0.000922168	1.87947	1.72319	4.39133	4.44797	0.451475	0.114246	11.0996	239.411	278.409	1137.35	0
115.906	0.000614371	2.03748	2.15628	5.76846	8.36704	6.51118	30.3388	2.00324	41.7566	1856.36	1497.09	0
116.407	0.000914546	1.84978	1.69589	4.32244	4.37838	0.443468	0.0977537	11.2887	306.156	2668.49	2286.46	0
116.909	0.000616138	2.00112	2.11879	5.66551	8.21983	6.39132	29.5956	1.59159	482.509	223.537	262.732	0
117.411	0.000898775	1.81862	1.66753	4.2499	4.30353	0.435028	0.0860722	10.8567	151.175	282.083	148.95	0
117.913	0.00059969	1.97227	2.08874	5.58391	8.09341	6.29126	28.9313	1.4098	256.55	23.5399	256.868	0
118.414	0.000881069	1.79019	1.64196	4.18453	4.23862	0.428382	0.0728888	10.9949	5.62211	803.13	1674.89	0
118.916	0.000567921	1.93639	2.04929	5.4805	7.94446	6.16463	28.2281	1.06464	243.118	402.46	407.029	0
119.418	0.000867631	1.76091	1.61515	4.11624	4.17017	0.421228	0.0639224	10.7667	18.9466	348.244	1893.04	0
119.92	0.000540961	1.90745	2.01783	5.39878	7.82183	6.06514	27.6126	0.895829	304.471	876.046	2082.51	0
120.421	0.00085652	1.73419	1.59054	4.05418	4.10802	0.414507	0.0539661	10.6949	57.2629	240.041	134.731	0
120.923	0.000530981	1.87518	1.98426	5.30656	7.68923	5.95597	26.9775	0.665793	165.069	195.101	453.186	0
121.425	0.000842479	1.70612	1.56484	3.98873	4.04112	0.408128	0.047602	10.6445	78.1007	463.832	466.688	0
121.927	0.000520736	1.84871	1.9557	5.22991	7.57508	5.86521	26.4091	0.516521	103.289	413.431	3601.83	0
122.428	0.00082872	1.68066	1.54179	3.92998	3.98225	0.402164	0.040039	10.3903	79.5529	1052.66	1884.07	0
122.93	0.000521545	1.81719	1.92317	5.14177	7.44944	5.75854	25.8176	0.393082	165.088	582.409	301.054	0
123.432	0.000815276	1.65419	1.51766	3.86858	3.92141	0.396241	0.0354401	10.3541	358.281	157.354	193.059	0
123.934	0.000487618	1.79233	1.89555	5.0695	7.3402	5.67341	25.2945	0.30027	21.7613	1113.77	2109.43	0
124.436	0.000796997	1.6295	1.49542	3.81185	3.86357	0.39087	0.0302425	10.0323	13.2052	284.69	454.591	0
124.937	0.000470789	1.7619	1.86324	4.98283	7.21628	5.56921	24.7394	0.265344	175.202	270.146	774.966	0
125.439	0.000774009	1.60436	1.47336	3.75369	3.80615	0.385781	0.0272077	9.8968	652.043	207.484	220.493	0
125.941	0.000463209	1.73829	1.8381	4.91501	7.11411	5.48954	24.2545	0.245332	215.733	702.441	1443.95	0
126.443	0.000780158	1.58101	1.45086	3.6988	3.7494	0.380177	0.0239881	9.59126	9.68105	592.491	1027.93	0
126.944	0.000442473	1.70977	1.80762	4.83413	6.99803	5.39213	23.7439	0.284107	181.961	612.814	1998.46	0
127.446	0.000748287	1.55659	1.42973	3.64356	3.69294	0.374362	0.0222087	9.31564	744.705	2547.75	4454.22	0
127.948	0.000442761	1.68674	1.78329	4.76858	6.89897	5.31476	23.2836	0.32793	427.016	769.864	293.698	0
128.45	0.000684209	1.53771	1.4166	3.60189	3.6553	0.375945	0.0214746	9.06183	44.8364	296.503	1185.89	0
128.951	0.000423082	1.65959	1.75426	4.69175	6.78864	5.22197	22.8065	0.423288	131.367	65.4183	95.8242	0
129.453	0.000733856	1.51234	1.38872	3.54036	3.59123	0.366258	0.0204683	8.69802	586.199	899.257	2435.14	0
129.955	0.000413526	1.63788	1.73097	4.62881	6.69429	5.1484	22.3775	0.514793	440.082	486.762	1046.76	0
130.457	0.00072121	1.49083	1.36926	3.49054	3.53998	0.361683	0.0201468	8.41958	35.4283	1117.93	1903.46	0
130.958	0.000401187	1.61151	1.70323	4.55484	6.58913	5.05971	21.9296	0.644754	40.6687	297.293	105.391	0
131.46	0.000717529	1.4687	1.34865	3.43816	3.48961	0.35706	0.0206359	8.06026	302.471	272.206	1664.43	0
131.962	0.000388899	1.59091	1.68109	4.4947	6.49902	4.9899	21.5323	0.767473	318.26	29.9168	372.505	0
132.464	0.000703844	1.44866	1.33027	3.39141	3.44193	0.354273	0.0215115	7.77304	11.3174	1248.02	2245.76	0
132.965	0.000374874	1.56541	1.65426	4.42404	6.39388	4.90582	21.1082	0.907518	21.3363	987.798	2116.78	0
133.467	0.000696995	1.42826	1.31204	3.34498	3.3953	0.349877	0.0229471	7.44838	83.0651	206.466	513.665	0
133.969	0.000385047	1.54497	1.63269	4.36314	6.30679	4.8366	20.7347	1.04677	206.545	874.154	2539.46	0
134.471	0.000701186	1.40807	1.29239	3.29711	3.34691	0.345016	0.0244144	7.1556	5.45596	311.465	1318.23	0
134.972	0.000361876	1.52199	1.60805	4.29967	6.21491	4.75681	20.3376	1.18047	82.2214	1828.88	1275.31	0
135.474	0.000687762	1.38805	1.27474	3.25073	3.30116	0.341498	0.0264767	6.87787	8.72944	961.317	105.659	0
135.976	0.000338011	1.50287	1.58683	4.24354	6.13052	4.69306	19.9935	1.3196	164.778	604.179	577.364	0
136.478	0.000658434	1.37014	1.25961	3.21078	3.26098	0.339286	0.0294044	6.61764	9.46333	72.1455	1245.91	0
136.979	0.000346659	1.4802	1.56355	4.18091	6.04114	4.61756	19.6154	1.44596	129.705	975.099	1039.62	0
137.481	0.000666555	1.35059	1.24089	3.1643	3.21516	0.334721	0.0319003	6.38494	12.5343	1068.75	737.424	0
137.983	0.000336285	1.46224	1.54431	4.12885	5.96187	4.55661	19.286	1.58016	162.581	231.541	666.761	0
138.485	0.00064835	1.33334	1.22557	3.12498	3.17564	0.332716	0.0354695	6.16546	37.4648	52.4525	485.287	0
138.986	0.000325523	1.44064	1.52125	4.06726	5.87465	4.4839	18.934	1.69871	153.496	681.739	93.8884	0
139.488	0.000651843	1.31415	1.20728	3.07876	3.1296	0.327523	0.0380439	5.9632	46.5679	463.639	292.507	0
139.99	0.000318712	1.4234	1.50287	4.01839	5.79846	4.42729	18.6274	1.81722	128.273	582.048	853.872	0
140.492	0.000630237	1.29804	1.19323	3.04294	3.09343	0.326422	0.0423522	5.79563	78.4104	795.227	878.414	0
140.993	0.000301963	1.40161	1.47843	3.95465	5.7088	4.34988	18.2839	1.93242	175.054	93.3871	330.757	0
141.495	0.000627217	1.28039	1.17701	3.00176	3.05356	0.323276	0.0457953	5.63752	157.758	179.91	395.603	0
141.997	0.000297009	1.38568	1.46247	3.91	5.64184	4.29933	18.0015	2.04429	56.9068	691.73	2471.37	0
142.499	0.000611329	1.26407	1.16231	2.96412	3.01498	0.320767	0.0500977	5.50536	103.026	1293.44	2860.62	0
143.001	0.000297204	1.36547	1.44145	3.85356	5.56182	4.23246	17.682	2.15931	123.519	437.613	204.812	0
143.502	0.00063271	1.24647	1.14493	2.92246	2.97204	0.316054	0.0534591	5.37114	310.614	409.833	652.784	0
144.004	0.000303252	1.35038	1.42464	3.81297	5.49255	4.1747	17.3919	2.27519	33.1774	274.013	353.43	0
144.506	0.000591004	1.2321	1.1335	2.89058	2.94221	0.315899	0.0586691	5.27606	178.797	372.923	841.748	0
145.008	0.000279246	1.33021	1.40353	3.75231	5.41355	4.11333	17.1052	2.37886	18.4261	208.812	134.151	0
145.509	0.000594978	1.21597	1.11837	2.85308	2.90448	0.312891	0.0626131	5.17448	327.583	318.249	699.062	0
146.011	0.000269319	1.315	1.38718	3.70797	5.34707	4.06354	16.8464	2.49199	65.8675	390.788	1342.7	0
146.513	0.000580661	1.20082	1.10462	2.81764	2.86866	0.310798	0.0678194	5.09727	355.149	145.387	852.521	0
147.015	0.000266856	1.29654	1.36768	3.65628	5.27339	4.00051	16.5622	2.60142	83.7771	22.5646	526.551	0
147.516	0.000587192	1.18473	1.08944	2.77969	2.8314	0.306736	0.0715987	5.01136	159.292	815.813	1794.58	0
148.018	0.00025422	1.28263	1.35228	3.61595	5.21096	3.95497	16.3195	2.71506	52.3684	866.718	1009	0
148.52	0.000549406	1.17153	1.07873	2.75033	2.80271	0.307178	0.0776757	4.9544	454.816	310.928	472.999	0
149.022	0.00025983	1.26424	1.33374	3.56464	5.13929	3.89458	16.042	2.82565	389.64	242.765	666.222	0
149.523	0.000558892	1.15601	1.06378	2.71379	2.76597	0.303487	0.0814954	4.88211	12.0951	1090.67	5222.75	0
150.025	0.000255466	1.25072	1.3196	3.52655	5.08072	3.8512	15.8172	2.94217	15.3316	1422.91	3617.14	0
150.527	0.000549119	1.14255	1.05157	2.68284	2.73494	0.302165	0.0873961	4.82624	307.449	350.142	892.792	0
151.029	0.000246468	1.23356	1.30076	3.47701	5.01353	3.79706	15.5671	3.04894	610.757	524.622	528.633	0
151.53	0.000539409	1.12823	1.03893	2.65053	2.7033	0.299962	0.0920336	4.77217	30.9023	155.876	986.641	0
152.032	0.000236577	1.22044	1.28671	3.43917	4.95388	3.74818	15.3358	3.16782	130.392	420.208	2365.5	0
152.534	0.000537325	1.1149	1.02633	2.61864	2.67105	0.298042	0.0977506	4.72186	134.101	421.726	68.2058	0
153.036	0.000236938	1.20341	1.269	3.39155	4.88657	3.69197	15.0903	3.27335	466.151	36.3204	467.044	0
153.537	0.00071105	1.10289	1.00462	2.57586	2.62209	0.291108	0.101069	4.65071	80.2231	40.1946	16.4602	0
154.039	0.0002318	1.191	1.25566	3.3557	4.83096	3.65145	14.8797	3.38489	387.591	375.144	912.041	0
154.541	0.000524777	1.0887	1.00248	2.55801	2.61074	0.294711	0.108295	4.6236	288.048	1379.53	2278.42	0
155.043	0.000224225	1.17424	1.23779	3.3081	4.76395	3.59564	14.6396	3.48999	159.599	953.994	1349.26	0
155.544	0.000520512	1.07776	0.990083	2.53496	2.58139	0.29094	0.112235	4.57261	30.5831	509.073	552.668	0
156.046	0.000220472	1.16251	1.22519	3.27444	4.71158	3.55594	14.4419	3.59632	523.496	1159.36	2192.04	0
156.548	0.000507671	1.06321	0.97951	2.49911	2.55183	0.291336	0.118555	4.52992	662.592	255.231	429.233	0
157.05	0.000183236	1.1466	1.20531	3.22587	4.64131	3.49794	14.2112	3.70078	48.4254	204.943	618.486	0
157.551	0.000507967	1.05061	0.967618	2.46979	2.52415	0.289508	0.123317	4.48356	9.09923	5.80974	74.3806	0
158.053	0.000210497	1.13553	1.19633	3.19623	4.597	3.46671	14.0264	3.80199	442.651	539.758	1743.47	0
158.555	0.00049879	1.0389	0.957225	2.44289	2.49706	0.288266	0.129958	4.44729	801.598	444.831	1439.45	0
159.057	0.000208063	1.12084	1.18128	3.15615	4.54021	3.41824	13.8195	3.89924	110.473	153.601	659.938	0
159.558	0.000497463	1.02663	0.945751	2.41385	2.46827	0.285638	0.133842	4.40179	141.311	608.346	2457.11	0
160.06	0.00020556	1.10945	1.16915	3.12342	4.49098	3.38146	13.6318	3.9964	380.568	55.165	1062.2	0
160.562	0.000488543	1.01504	0.935267	2.38779	2.443	0.286434	0.141571	4.38004	573.491	219.674	73.5515	0
161.064	0.000198658	1.09483	1.1532	3.08194	4.43183	3.33117	13.4245	4.08501	100.608	138.496	21.1612	0
161.565	0.0004819	1.00354	0.924977	2.36109	2.416	0.283333	0.144934	4.32828	295.023	411.682	536.727	0
162.067	0.000205738	1.08437	1.14313	3.05318	4.38843	3.2985	13.2518	4.17707	478.391	319.627	441.314	0
162.569	0.000494209	0.993647	0.913587	2.33488	2.38809	0.28204	0.151892	4.29672	290.812	171.203	27.8372	0
163.071	0.000191889	1.07002	1.12691	3.01126	4.32886	3.24845	13.0541	4.26344	18.4621	263.214	36.0502	0
163.572	0.000462646	0.981377	0.905327	2.31027	2.3655	0.281027	0.156122	4.26058	330.506	690.126	202.232	0
164.074	0.000188353	1.06018	1.11641	2.98278	4.28464	3.21712	12.8946	4.35233	538.354	643.911	132.207	0
164.576	0.000464374	0.970997	0.895238	2.28511	2.34078	0.280127	0.162761	4.23398	167.046	51.7887	173.423	0
165.078	0.000188024	1.04707	1.10273	2.9465	4.2341	3.17574	12.7032	4.43064	38.9049	11.2082	151.509	0
165.58	0.000459735	0.959988	0.885144	2.25972	2.31549	0.278043	0.166809	4.193	368.202	124.342	137.869	0
166.081	0.000181867	1.03688	1.09159	2.91666	4.1882	3.14044	12.5466	4.52363	398.285	156.846	107.337	0
166.583	0.00045663	0.950309	0.876377	2.23738	2.29308	0.277883	0.173431	4.16616	97.5256	106.312	666.429	0
167.085	0.000180728	1.02393	1.07815	2.87988	4.13507	3.10038	12.3714	4.601	139.796	575.065	2119.71	0
167.587	0.000448875	0.939459	0.86655	2.21357	2.26893	0.275938	0.177702	4.12972	541.435	170.271	951.036	0
168.088	0.000169372	1.01382	1.06652	2.85028	4.09156	3.06354	12.213	4.68127	224.002	257.082	433.1	0
168.59	0.000435749	0.930511	0.858831	2.19268	2.24908	0.276957	0.185217	4.10494	14.2244	525.081	978.014	0
169.092	0.000173497	1.0015	1.05412	2.81604	4.04192	3.0231	12.0395	4.75028	168.939	416.881	1174.48	0
169.594	0.000444928	0.919093	0.847567	2.16482	2.22136	0.272767	0.188087	4.06311	690.429	165.68	493.716	0
170.095	0.000166746	0.992802	1.04453	2.79049	4.00392	2.99416	11.8983	4.82939	206.79	28.347	159.341	0
170.597	0.00043132	0.910276	0.840038	2.14568	2.20197	0.274538	0.19588	4.03783	34.774	448.159	776.783	0
171.099	0.000160814	0.979817	1.03055	2.75405	3.95155	2.95205	11.7272	4.89786	175.292	109.092	564.281	0
171.601	0.000432743	0.900168	0.830469	2.12127	2.17907	0.271448	0.199334	3.99628	586.768	468.21	551.199	0
172.102	0.000163895	0.971794	1.02263	2.73141	3.91601	2.92471	11.5951	4.96449	249.041	630.63	1556.06	0
172.604	0.000420554	0.891502	0.823013	2.10163	2.15948	0.271876	0.20656	3.97204	167.609	0.582031	546.467	0
173.106	0.000161382	0.959994	1.0101	2.69825	3.86944	2.886	11.4323	5.02482	329.146	188.074	184.407	0
173.608	0.000417236	0.881974	0.814242	2.07933	2.13733	0.269995	0.209917	3.92846	310.26	214.233	99.6817	0
174.109	0.000149573	0.9506	0.999714	2.66914	3.82697	2.85619	11.2973	5.09099	180.254	720.17	883.159	0
174.611	0.000395787	0.87375	0.807769	2.06129	2.12021	0.2713	0.218036	3.90582	219.145	102.637	402.598	0
175.113	0.000153679	0.940403	0.988847	2.6417	3.78622	2.82059	11.1461	5.13996	565.586	165.468	397.278	0
175.615	0.000410023	0.863997	0.79771	2.03718	2.09468	0.267613	0.219215	3.85394	134.305	4.07076	52.1876	0
176.116	0.000153483	0.932342	0.980529	2.61879	3.75179	2.79442	11.022	5.19817	60.1042	485.915	423.904	0
176.618	0.000403616	0.855613	0.790356	2.01844	2.07646	0.268198	0.226569	3.82394	114.935	530.377	416.365	0
177.12	0.000148926	0.920856	0.968038	2.5862	3.7066	2.75613	10.8695	5.23979	615.667	261.189	84.0129	0
177.622	0.0004019	0.84669	0.781989	1.99753	2.05649	0.266457	0.231208	3.78377	137.512	16.6793	27.1106	0
178.123	0.000146263	0.912518	0.959229	2.56206	3.67031	2.72988	10.7452	5.28771	40.2673	362.974	705.55	0
178.625	0.000399988	0.837862	0.773745	1.97676	2.03662	0.265679	0.238662	3.75174	42.0566	482.708	671.102	0
179.127	0.000145211	0.902146	0.948402	2.53316	3.62846	2.69507	10.6047	5.32558	396.75	81.8891	22.6223	0
179.629	0.000389142	0.830402	0.766845	1.95998	2.01538	0.265489	0.240486	3.70179	170.539	191.876	400.039	0
180.13	0.000145817	0.898322	0.944304	2.52133	3.60621	2.68286	10.5118	5.35979	92.4861	19.6476	2.57501	0
180.632	0.00038313	0.822267	0.760193	1.94155	2.00156	0.265543	0.249455	3.67848	148.811	105.722	336.724	0
181.134	0.000145052	0.884464	0.929916	2.48347	3.55274	2.63605	10.3495	5.39606	124.964	92.1311	25.2355	0
181.636	0.000384992	0.813628	0.751833	1.92096	1.98097	0.263307	0.251949	3.62976	142.689	281.408	523.37	0
182.137	0.000136816	0.877354	0.92178	2.46204	3.52357	2.61451	10.242	5.42928	85.0692	299.217	151.359	0
182.639	0.000376711	0.807029	0.746468	1.90758	1.96731	0.265089	0.260139	3.59778	315.31	133.236	648.382	0
183.141	0.000134822	0.86677	0.910104	2.43084	3.47997	2.57707	10.1014	5.44848	9.68274	350.309	1069.08	0
183.643	0.000372158	0.798239	0.738083	1.88553	1.94652	0.262229	0.262309	3.54707	118.392	17.5776	135.37	0
184.145	0.000135221	0.860207	0.903813	2.41331	3.452	2.55811	10.0009	5.47641	19.6645	208.183	566.782	0
184.646	0.000372221	0.791532	0.732031	1.87051	1.93106	0.263546	0.270638	3.51986	343.813	50.5418	618.605	0
185.148	0.000136999	0.851054	0.89473	2.38779	3.41018	2.52725	9.87114	5.47892	32.4429	58.9603	659.731	0
185.65	0.000363449	0.783622	0.724665	1.85176	1.91311	0.262132	0.273191	3.46925	141.739	141.2	252.987	0
186.152	0.000126179	0.843888	0.885853	2.36626	3.38238	2.50269	9.76738	5.50803	11.6742	560.556	709.613	0
186.653	0.000366054	0.776153	0.718074	1.83521	1.89638	0.261896	0.280035	3.43727	223.763	547.181	519.621	0
187.155	0.000125849	0.835273	0.877098	2.34176	3.34733	2.47583	9.65509	5.51905	73.0094	136.054	79.1307	0
187.657	0.000360018	0.768358	0.710811	1.81653	1.8783	0.259804	0.281688	3.38584	149.538	4.63383	17.5476	0
188.159	0.000128273	0.82808	0.869684	2.32165	3.31767	2.45295	9.54729	5.52996	88.4836	144.614	88.6882	0
188.66	0.000363328	0.761747	0.704452	1.80118	1.86411	0.261497	0.290565	3.36064	91.4114	200.532	143.879	0
189.162	0.00012688	0.818484	0.859536	2.2947	3.27999	2.42052	9.42672	5.5333	94.6311	121.206	180.491	0
189.664	0.000354224	0.754306	0.697744	1.7836	1.84598	0.258634	0.291954	3.31062	92.7348	89.2924	54.737	0
190.166	0.000126483	0.812823	0.853662	2.27807	3.25419	2.40317	9.33651	5.54391	155.875	90.158	240.576	0
190.667	0.000346366	0.74788	0.692294	1.7688	1.83184	0.259561	0.299513	3.28048	27.6531	328.063	379.163	0
191.169	0.000119374	0.802609	0.842242	2.24858	3.21047	2.36731	9.20258	5.53349	124.894	32.3644	2.88869	0
191.671	0.000341989	0.740474	0.685618	1.75206	1.81498	0.257599	0.30157	3.23297	21.3311	106.858	471.478	0
192.173	0.000117003	0.797446	0.836695	2.23395	3.18914	2.35137	9.12362	5.54109	146.809	19.1469	251.891	0
192.674	0.000355318	0.733683	0.677081	1.73485	1.79668	0.255883	0.307279	3.19248	7.96352	400.849	520.449	0
193.176	0.000118025	0.788654	0.827619	2.20946	3.15454	2.32223	9.01176	5.53542	152.796	273.689	62.7784	0
193.678	0.000342861	0.728024	0.673976	1.71924	1.78341	0.257346	0.312345	3.16142	2.80606	54.7634	1028.19	0
194.18	0.00011895	0.783652	0.822444	2.19504	3.13125	2.30637	8.92636	5.54019	97.649	193.94	1478.36	0
194.681	0.000332455	0.721796	0.668435	1.7091	1.77307	0.257671	0.319667	3.13226	0.486302	134.186	78.2545	0
195.183	0.000115036	0.773845	0.811972	2.16753	3.09391	2.27406	8.81089	5.5248	134.475	629.76	333.195	0
195.685	0.00033038	0.714462	0.661767	1.69185	1.75543	0.256196	0.321049	3.08609	28.5328	123.334	326.648	0
196.187	0.000109699	0.768986	0.806315	2.15323	3.0703	2.25778	8.73338	5.52634	68.4245	93.7543	534.044	0
196.688	0.000331259	0.708745	0.656727	1.67933	1.74365	0.258083	0.329835	3.06338	16.7991	23.208	425.108	0
197.19	0.000109501	0.760293	0.797353	2.12836	3.03745	2.22844	8.62326	5.50743	69.8016	182.494	167.97	0
197.692	0.000332126	0.701888	0.649985	1.66265	1.72739	0.255785	0.330712	3.01497	43.8565	214.434	296.184	0
198.194	0.00011126	0.755867	0.792722	2.11565	3.01478	2.21579	8.54555	5.50323	61.9872	40.4385	531.779	0
198.695	0.000324634	0.696188	0.645268	1.65007	1.71433	0.256325	0.339537	2.99492	65.2307	291.571	375.293	0
